   0.00000000       0.00000000       31673.9941    
   1.00000005E-03   31.6581612       31642.3203    
   2.00000009E-03   63.2846451       31610.6484    
   3.00000003E-03   94.8794632       31578.9746    
   4.00000019E-03   126.442612       31547.3027    
   5.00000035E-03   157.974075       31515.6289    
   6.00000005E-03   189.473877       31483.9570    
   7.00000022E-03   220.942001       31452.2832    
   8.00000038E-03   252.378448       31420.6113    
   9.00000054E-03   283.783234       31388.9375    
   1.00000007E-02   315.156342       31357.2656    
   1.10000009E-02   346.497772       31325.5918    
   1.20000001E-02   377.807526       31293.9180    
   1.30000003E-02   409.085632       31262.2461    
   1.40000004E-02   440.332031       31230.5723    
   1.50000006E-02   471.546783       31198.9004    
   1.60000008E-02   502.729858       31167.2266    
   1.70000009E-02   533.881226       31135.5547    
   1.80000011E-02   565.000916       31103.8809    
   1.90000013E-02   596.088989       31072.2090    
   2.00000014E-02   627.145386       31040.5352    
   2.10000016E-02   658.170105       31008.8613    
   2.20000017E-02   689.163086       30977.1895    
   2.30000019E-02   720.124451       30945.5156    
   2.40000002E-02   751.054138       30913.8438    
   2.50000004E-02   781.952148       30882.1699    
   2.60000005E-02   812.818481       30850.4980    
   2.70000007E-02   843.653137       30818.8242    
   2.80000009E-02   874.456055       30787.1523    
   2.90000010E-02   905.227356       30755.4785    
   3.00000012E-02   935.966980       30723.8047    
   3.10000014E-02   966.674927       30692.1328    
   3.20000015E-02   997.351196       30660.4590    
   3.29999998E-02   1027.99585       30628.7871    
   3.40000018E-02   1058.60876       30597.1133    
   3.50000001E-02   1089.19006       30565.4414    
   3.60000022E-02   1119.73975       30533.7676    
   3.70000005E-02   1150.25769       30502.0957    
   3.80000025E-02   1180.74402       30470.4219    
   3.90000008E-02   1211.19849       30438.7480    
   4.00000028E-02   1241.62146       30407.0762    
   4.10000011E-02   1272.01270       30375.4023    
   4.20000032E-02   1302.37219       30343.7305    
   4.30000015E-02   1332.70020       30312.0566    
   4.40000035E-02   1362.99646       30280.3848    
   4.50000018E-02   1393.26099       30248.7109    
   4.60000038E-02   1423.49377       30217.0391    
   4.70000021E-02   1453.69495       30185.3652    
   4.80000004E-02   1483.86450       30153.6914    
   4.90000024E-02   1514.00232       30122.0195    
   5.00000007E-02   1544.10852       30090.3457    
   5.10000028E-02   1574.18298       30058.6738    
   5.20000011E-02   1604.22595       30027.0000    
   5.30000031E-02   1634.23706       29995.3281    
   5.40000014E-02   1664.21667       29963.6543    
   5.50000034E-02   1694.16455       29931.9824    
   5.60000017E-02   1724.08069       29900.3125    
   5.70000038E-02   1753.96521       29868.6426    
   5.80000021E-02   1783.81812       29836.9727    
   5.90000041E-02   1813.63940       29805.3027    
   6.00000024E-02   1843.42896       29773.6328    
   6.10000044E-02   1873.18665       29741.9629    
   6.20000027E-02   1902.91272       29710.2930    
   6.30000010E-02   1932.60706       29678.6230    
   6.40000030E-02   1962.26978       29646.9531    
   6.50000051E-02   1991.90088       29615.2832    
   6.59999996E-02   2021.50024       29583.6133    
   6.70000017E-02   2051.06787       29551.9434    
   6.80000037E-02   2080.60400       29520.2734    
   6.90000057E-02   2110.10840       29488.6035    
   7.00000003E-02   2139.58105       29456.9336    
   7.10000023E-02   2169.02222       29425.2656    
   7.20000044E-02   2198.43164       29393.5957    
   7.30000064E-02   2227.80933       29361.9277    
   7.40000010E-02   2257.15552       29330.2617    
   7.50000030E-02   2286.46997       29298.5957    
   7.60000050E-02   2315.75269       29266.9277    
   7.70000070E-02   2345.00391       29235.2617    
   7.80000016E-02   2374.22339       29203.5957    
   7.90000036E-02   2403.41113       29171.9277    
   8.00000057E-02   2432.56714       29140.2617    
   8.10000002E-02   2461.69165       29108.5957    
   8.20000023E-02   2490.78442       29076.9277    
   8.30000043E-02   2519.84570       29045.2617    
   8.40000063E-02   2548.87500       29013.5977    
   8.50000009E-02   2577.87280       28981.9355    
   8.60000029E-02   2606.83911       28950.2715    
   8.70000049E-02   2635.77368       28918.6074    
   8.80000070E-02   2664.67651       28886.9434    
   8.90000015E-02   2693.54761       28855.2812    
   9.00000036E-02   2722.38696       28823.6172    
   9.10000056E-02   2751.19482       28791.9531    
   9.20000076E-02   2779.97119       28760.2891    
   9.30000022E-02   2808.71558       28728.6289    
   9.40000042E-02   2837.42847       28696.9688    
   9.50000063E-02   2866.10962       28665.3086    
   9.60000008E-02   2894.75928       28633.6484    
   9.70000029E-02   2923.37720       28601.9883    
   9.80000049E-02   2951.96338       28570.3281    
   9.90000069E-02   2980.51782       28538.6680    
  0.100000001       3009.04077       28507.0078    
  0.101000004       3037.53198       28475.3496    
  0.102000006       3065.99146       28443.6934    
  0.103000008       3094.41943       28412.0352    
  0.104000002       3122.81567       28380.3789    
  0.105000004       3151.18018       28348.7207    
  0.106000006       3179.51318       28317.0645    
  0.107000008       3207.81445       28285.4102    
  0.108000003       3236.08398       28253.7559    
  0.109000005       3264.32202       28222.1016    
  0.110000007       3292.52832       28190.4473    
  0.111000009       3320.70312       28158.7930    
  0.112000003       3348.84595       28127.1387    
  0.113000005       3376.95752       28095.4883    
  0.114000008       3405.03711       28063.8379    
  0.115000002       3433.08521       28032.1855    
  0.116000004       3461.10156       28000.5352    
  0.117000006       3489.08643       27968.8848    
  0.118000008       3517.03931       27937.2363    
  0.119000003       3544.96094       27905.5898    
  0.120000005       3572.85059       27873.9414    
  0.121000007       3600.70874       27842.2930    
  0.122000009       3628.53491       27810.6465    
  0.123000003       3656.32983       27779.0020    
  0.124000005       3684.09277       27747.3555    
  0.125000000       3711.82446       27715.7109    
  0.126000002       3739.52441       27684.0664    
  0.127000004       3767.19263       27652.4219    
  0.128000006       3794.82935       27620.7812    
  0.129000008       3822.43433       27589.1387    
  0.130000010       3850.00781       27557.4980    
  0.131000012       3877.54932       27525.8574    
  0.131999999       3905.05933       27494.2188    
  0.133000001       3932.53760       27462.5801    
  0.134000003       3959.98438       27430.9414    
  0.135000005       3987.39966       27399.3027    
  0.136000007       4014.78320       27367.6680    
  0.137000009       4042.13525       27336.0332    
  0.138000011       4069.45532       27304.3984    
  0.139000013       4096.74414       27272.7656    
  0.140000001       4124.00049       27241.1328    
  0.141000003       4151.22607       27209.5020    
  0.142000005       4178.41992       27177.8691    
  0.143000007       4205.58203       27146.2402    
  0.144000009       4232.71240       27114.6113    
  0.145000011       4259.81104       27082.9824    
  0.146000013       4286.87842       27051.3574    
  0.147000000       4313.91357       27019.7305    
  0.148000002       4340.91748       26988.1055    
  0.149000004       4367.89014       26956.4805    
  0.150000006       4394.83057       26924.8574    
  0.151000008       4421.73975       26893.2344    
  0.152000010       4448.61719       26861.6113    
  0.153000012       4475.46289       26829.9922    
  0.154000014       4502.27734       26798.3730    
  0.155000001       4529.05957       26766.7539    
  0.156000003       4555.81055       26735.1367    
  0.157000005       4582.52979       26703.5215    
  0.158000007       4609.21729       26671.9043    
  0.159000009       4635.87354       26640.2910    
  0.160000011       4662.49805       26608.6777    
  0.161000013       4689.09082       26577.0684    
  0.162000000       4715.65234       26545.4570    
  0.163000003       4742.18164       26513.8477    
  0.164000005       4768.68018       26482.2402    
  0.165000007       4795.14648       26450.6348    
  0.166000009       4821.58154       26419.0273    
  0.167000011       4847.98486       26387.4238    
  0.168000013       4874.35596       26355.8203    
  0.169000015       4900.69629       26324.2168    
  0.170000002       4927.00439       26292.6172    
  0.171000004       4953.28125       26261.0176    
  0.172000006       4979.52637       26229.4199    
  0.173000008       5005.74023       26197.8223    
  0.174000010       5031.92188       26166.2266    
  0.175000012       5058.07227       26134.6328    
  0.176000014       5084.19141       26103.0410    
  0.177000001       5110.27832       26071.4492    
  0.178000003       5136.33398       26039.8594    
  0.179000005       5162.35840       26008.2715    
  0.180000007       5188.35059       25976.6855    
  0.181000009       5214.31152       25945.0996    
  0.182000011       5240.24072       25913.5137    
  0.183000013       5266.13867       25881.9297    
  0.184000015       5292.00488       25850.3496    
  0.185000002       5317.83936       25818.7695    
  0.186000004       5343.64258       25787.1895    
  0.187000006       5369.41357       25755.6133    
  0.188000008       5395.15332       25724.0371    
  0.189000010       5420.86182       25692.4648    
  0.190000013       5446.53857       25660.8926    
  0.191000015       5472.18359       25629.3203    
  0.192000002       5497.79688       25597.7520    
  0.193000004       5523.37939       25566.1836    
  0.194000006       5548.92969       25534.6191    
  0.195000008       5574.44873       25503.0547    
  0.196000010       5599.93555       25471.4902    
  0.197000012       5625.39160       25439.9297    
  0.198000014       5650.81592       25408.3711    
  0.199000016       5676.20850       25376.8145    
  0.200000003       5701.56934       25345.2578    
  0.201000005       5726.89893       25313.7051    
  0.202000007       5752.19727       25282.1543    
  0.203000009       5777.46338       25250.6035    
  0.204000011       5802.69824       25219.0547    
  0.205000013       5827.90137       25187.5078    
  0.206000015       5853.07324       25155.9629    
  0.207000017       5878.21338       25124.4199    
  0.208000004       5903.32227       25092.8789    
  0.209000006       5928.39893       25061.3398    
  0.210000008       5953.44482       25029.8027    
  0.211000010       5978.45898       24998.2656    
  0.212000012       6003.44141       24966.7324    
  0.213000014       6028.39209       24935.2012    
  0.214000016       6053.31152       24903.6719    
  0.215000004       6078.19922       24872.1445    
  0.216000006       6103.05566       24840.6191    
  0.217000008       6127.88086       24809.0957    
  0.218000010       6152.67432       24777.5723    
  0.219000012       6177.43604       24746.0547    
  0.220000014       6202.16650       24714.5371    
  0.221000016       6226.86523       24683.0215    
  0.222000018       6251.53223       24651.5098    
  0.223000005       6276.16797       24619.9980    
  0.224000007       6300.77246       24588.4883    
  0.225000009       6325.34521       24556.9824    
  0.226000011       6349.88623       24525.4785    
  0.227000013       6374.39648       24493.9766    
  0.228000015       6398.87451       24462.4766    
  0.229000017       6423.32129       24430.9785    
  0.230000004       6447.73633       24399.4824    
  0.231000006       6472.12012       24367.9902    
  0.232000008       6496.47217       24336.4980    
  0.233000010       6520.79297       24305.0098    
  0.234000012       6545.08203       24273.5234    
  0.235000014       6569.33984       24242.0410    
  0.236000016       6593.56641       24210.5586    
  0.237000018       6617.76074       24179.0801    
  0.238000005       6641.92383       24147.6035    
  0.239000008       6666.05518       24116.1289    
  0.240000010       6690.15527       24084.6562    
  0.241000012       6714.22363       24053.1875    
  0.242000014       6738.26074       24021.7207    
  0.243000016       6762.26660       23990.2559    
  0.244000018       6786.24072       23958.7949    
  0.245000005       6810.18359       23927.3359    
  0.246000007       6834.09473       23895.8789    
  0.247000009       6857.97461       23864.4238    
  0.248000011       6881.82275       23832.9727    
  0.249000013       6905.63965       23801.5234    
  0.250000000       6929.42578       23770.0762    
  0.251000017       6953.18066       23738.6328    
  0.252000004       6976.90381       23707.1914    
  0.253000021       7000.59570       23675.7539    
  0.254000008       7024.25586       23644.3184    
  0.255000025       7047.88477       23612.8848    
  0.256000012       7071.48242       23581.4551    
  0.256999999       7095.04834       23550.0273    
  0.258000016       7118.58252       23518.6035    
  0.259000003       7142.08545       23487.1816    
  0.260000020       7165.55713       23455.7637    
  0.261000007       7188.99707       23424.3477    
  0.262000024       7212.40576       23392.9336    
  0.263000011       7235.78271       23361.5234    
  0.263999999       7259.12842       23330.1172    
  0.265000015       7282.44287       23298.7129    
  0.266000003       7305.72559       23267.3125    
  0.267000020       7328.97656       23235.9141    
  0.268000007       7352.19727       23204.5195    
  0.269000024       7375.38672       23173.1270    
  0.270000011       7398.54395       23141.7363    
  0.271000028       7421.67041       23110.3496    
  0.272000015       7444.76514       23078.9668    
  0.273000002       7467.82812       23047.5859    
  0.274000019       7490.86035       23016.2090    
  0.275000006       7513.86035       22984.8359    
  0.276000023       7536.82959       22953.4648    
  0.277000010       7559.76660       22922.0977    
  0.278000027       7582.67334       22890.7324    
  0.279000014       7605.54883       22859.3711    
  0.280000001       7628.39258       22828.0137    
  0.281000018       7651.20508       22796.6602    
  0.282000005       7673.98584       22765.3105    
  0.283000022       7696.73535       22733.9629    
  0.284000009       7719.45312       22702.6191    
  0.285000026       7742.14014       22671.2773    
  0.286000013       7764.79639       22639.9395    
  0.287000000       7787.42041       22608.6055    
  0.288000017       7810.01318       22577.2754    
  0.289000005       7832.57471       22545.9473    
  0.290000021       7855.10449       22514.6250    
  0.291000009       7877.60400       22483.3047    
  0.292000026       7900.07178       22451.9883    
  0.293000013       7922.50781       22420.6758    
  0.294000000       7944.91309       22389.3652    
  0.295000017       7967.28613       22358.0586    
  0.296000004       7989.62891       22326.7578    
  0.297000021       8011.94043       22295.4590    
  0.298000008       8034.22021       22264.1641    
  0.299000025       8056.46826       22232.8730    
  0.300000012       8078.68506       22201.5859    
  0.301000029       8100.87158       22170.3008    
  0.302000016       8123.02588       22139.0215    
  0.303000003       8145.14941       22107.7461    
  0.304000020       8167.24121       22076.4727    
  0.305000007       8189.30225       22045.2051    
  0.306000024       8211.33203       22013.9395    
  0.307000011       8233.33008       21982.6777    
  0.308000028       8255.29688       21951.4219    
  0.309000015       8277.23242       21920.1680    
  0.310000002       8299.13770       21888.9180    
  0.311000019       8321.01074       21857.6738    
  0.312000006       8342.85254       21826.4316    
  0.313000023       8364.66406       21795.1934    
  0.314000010       8386.44336       21763.9609    
  0.315000027       8408.19141       21732.7324    
  0.316000015       8429.90820       21701.5078    
  0.317000002       8451.59473       21670.2871    
  0.318000019       8473.24902       21639.0703    
  0.319000006       8494.87305       21607.8574    
  0.320000023       8516.46484       21576.6484    
  0.321000010       8538.02539       21545.4453    
  0.322000027       8559.55566       21514.2461    
  0.323000014       8581.05469       21483.0488    
  0.324000001       8602.52148       21451.8574    
  0.325000018       8623.95801       21420.6699    
  0.326000005       8645.36328       21389.4863    
  0.327000022       8666.73633       21358.3086    
  0.328000009       8688.08008       21327.1348    
  0.329000026       8709.39062       21295.9648    
  0.330000013       8730.67188       21264.7988    
  0.331000030       8751.92090       21233.6387    
  0.332000017       8773.13867       21202.4805    
  0.333000004       8794.32617       21171.3281    
  0.334000021       8815.48145       21140.1816    
  0.335000008       8836.60645       21109.0391    
  0.336000025       8857.69922       21077.9004    
  0.337000012       8878.76172       21046.7676    
  0.338000029       8899.79297       21015.6387    
  0.339000016       8920.79297       20984.5137    
  0.340000004       8941.76270       20953.3926    
  0.341000021       8962.70020       20922.2773    
  0.342000008       8983.60742       20891.1660    
  0.343000025       9004.48242       20860.0586    
  0.344000012       9025.32715       20828.9570    
  0.345000029       9046.14062       20797.8594    
  0.346000016       9066.92285       20766.7676    
  0.347000003       9087.67383       20735.6816    
  0.348000020       9108.39355       20704.5996    
  0.349000007       9129.08301       20673.5234    
  0.350000024       9149.74023       20642.4512    
  0.351000011       9170.36816       20611.3828    
  0.352000028       9190.96289       20580.3203    
  0.353000015       9211.52832       20549.2637    
  0.354000002       9232.06152       20518.2109    
  0.355000019       9252.56445       20487.1641    
  0.356000006       9273.03613       20456.1211    
  0.357000023       9293.47656       20425.0840    
  0.358000010       9313.88672       20394.0508    
  0.359000027       9334.26465       20363.0254    
  0.360000014       9354.61230       20332.0039    
  0.361000031       9374.92871       20300.9863    
  0.362000018       9395.21484       20269.9766    
  0.363000005       9415.46875       20238.9707    
  0.364000022       9435.69238       20207.9688    
  0.365000010       9455.88574       20176.9746    
  0.366000026       9476.04688       20145.9844    
  0.367000014       9496.17773       20114.9980    
  0.368000031       9516.27637       20084.0195    
  0.369000018       9536.34473       20053.0449    
  0.370000005       9556.38281       20022.0762    
  0.371000022       9576.38965       19991.1133    
  0.372000009       9596.36523       19960.1543    
  0.373000026       9616.31055       19929.2031    
  0.374000013       9636.22363       19898.2539    
  0.375000030       9656.10645       19867.3125    
  0.376000017       9675.95898       19836.3789    
  0.377000004       9695.77930       19805.4473    
  0.378000021       9715.57031       19774.5234    
  0.379000008       9735.32910       19743.6035    
  0.380000025       9755.05762       19712.6914    
  0.381000012       9774.75488       19681.7832    
  0.382000029       9794.42090       19650.8809    
  0.383000016       9814.05664       19619.9844    
  0.384000003       9833.66113       19589.0938    
  0.385000020       9853.23438       19558.2090    
  0.386000007       9872.77734       19527.3301    
  0.387000024       9892.28906       19496.4590    
  0.388000011       9911.77051       19465.5918    
  0.389000028       9931.22070       19434.7305    
  0.390000015       9950.63965       19403.8750    
  0.391000032       9970.02832       19373.0273    
  0.392000020       9989.38574       19342.1836    
  0.393000007       10008.7119       19311.3457    
  0.394000024       10028.0088       19280.5137    
  0.395000011       10047.2734       19249.6895    
  0.396000028       10066.5078       19218.8711    
  0.397000015       10085.7109       19188.0586    
  0.398000032       10104.8838       19157.2520    
  0.399000019       10124.0254       19126.4512    
  0.400000006       10143.1367       19095.6582    
  0.401000023       10162.2168       19064.8691    
  0.402000010       10181.2676       19034.0879    
  0.403000027       10200.2852       19003.3105    
  0.404000014       10219.2734       18972.5410    
  0.405000031       10238.2305       18941.7773    
  0.406000018       10257.1562       18911.0215    
  0.407000005       10276.0527       18880.2715    
  0.408000022       10294.9170       18849.5293    
  0.409000009       10313.7520       18818.7930    
  0.410000026       10332.5557       18788.0625    
  0.411000013       10351.3281       18757.3379    
  0.412000030       10370.0703       18726.6191    
  0.413000017       10388.7822       18695.9082    
  0.414000034       10407.4629       18665.2031    
  0.415000021       10426.1123       18634.5059    
  0.416000009       10444.7314       18603.8145    
  0.417000026       10463.3193       18573.1309    
  0.418000013       10481.8770       18542.4512    
  0.419000030       10500.4033       18511.7812    
  0.420000017       10518.8994       18481.1172    
  0.421000034       10537.3652       18450.4590    
  0.422000021       10555.8008       18419.8086    
  0.423000008       10574.2061       18389.1641    
  0.424000025       10592.5801       18358.5254    
  0.425000012       10610.9229       18327.8965    
  0.426000029       10629.2363       18297.2734    
  0.427000016       10647.5186       18266.6562    
  0.428000033       10665.7695       18236.0469    
  0.429000020       10683.9902       18205.4434    
  0.430000007       10702.1807       18174.8496    
  0.431000024       10720.3398       18144.2598    
  0.432000011       10738.4688       18113.6797    
  0.433000028       10756.5664       18083.1035    
  0.434000015       10774.6348       18052.5371    
  0.435000032       10792.6719       18021.9766    
  0.436000019       10810.6787       17991.4238    
  0.437000006       10828.6553       17960.8789    
  0.438000023       10846.6006       17930.3398    
  0.439000010       10864.5156       17899.8086    
  0.440000027       10882.4004       17869.2852    
  0.441000015       10900.2539       17838.7676    
  0.442000031       10918.0781       17808.2598    
  0.443000019       10935.8711       17777.7578    
  0.444000036       10953.6328       17747.2637    
  0.445000023       10971.3652       17716.7773    
  0.446000010       10989.0664       17686.2988    
  0.447000027       11006.7373       17655.8281    
  0.448000014       11024.3779       17625.3633    
  0.449000031       11041.9883       17594.9062    
  0.450000018       11059.5674       17564.4570    
  0.451000035       11077.1172       17534.0156    
  0.452000022       11094.6357       17503.5820    
  0.453000009       11112.1240       17473.1582    
  0.454000026       11129.5820       17442.7383    
  0.455000013       11147.0098       17412.3262    
  0.456000030       11164.4072       17381.9238    
  0.457000017       11181.7734       17351.5273    
  0.458000034       11199.1104       17321.1406    
  0.459000021       11216.4160       17290.7617    
  0.460000008       11233.6914       17260.3887    
  0.461000025       11250.9365       17230.0254    
  0.462000012       11268.1514       17199.6680    
  0.463000029       11285.3359       17169.3203    
  0.464000016       11302.4902       17138.9805    
  0.465000033       11319.6143       17108.6484    
  0.466000021       11336.7080       17078.3242    
  0.467000008       11353.7705       17048.0098    
  0.468000025       11370.8037       17017.7012    
  0.469000012       11387.8057       16987.4023    
  0.470000029       11404.7783       16957.1113    
  0.471000016       11421.7197       16926.8281    
  0.472000033       11438.6318       16896.5527    
  0.473000020       11455.5127       16866.2871    
  0.474000037       11472.3643       16836.0273    
  0.475000024       11489.1846       16805.7773    
  0.476000011       11505.9756       16775.5352    
  0.477000028       11522.7363       16745.3027    
  0.478000015       11539.4658       16715.0762    
  0.479000032       11556.1660       16684.8613    
  0.480000019       11572.8359       16654.6523    
  0.481000036       11589.4756       16624.4512    
  0.482000023       11606.0850       16594.2617    
  0.483000010       11622.6641       16564.0781    
  0.484000027       11639.2139       16533.9043    
  0.485000014       11655.7314       16503.7383    
  0.486000031       11672.2207       16473.5820    
  0.487000018       11688.6797       16443.4336    
  0.488000035       11705.1074       16413.2949    
  0.489000022       11721.5059       16383.1641    
  0.490000010       11737.8740       16353.0420    
  0.491000026       11754.2119       16322.9277    
  0.492000014       11770.5195       16292.8232    
  0.493000031       11786.7979       16262.7285    
  0.494000018       11803.0449       16232.6416    
  0.495000035       11819.2637       16202.5635    
  0.496000022       11835.4502       16172.4961    
  0.497000009       11851.6084       16142.4355    
  0.498000026       11867.7354       16112.3848    
  0.499000013       11883.8330       16082.3428    
  0.500000000       11899.9004       16052.3096    
  0.501000047       11915.9375       16022.2852    
  0.502000034       11931.9443       15992.2705    
  0.503000021       11947.9219       15962.2646    
  0.504000008       11963.8691       15932.2695    
  0.504999995       11979.7861       15902.2812    
  0.506000042       11995.6738       15872.3027    
  0.507000029       12011.5312       15842.3340    
  0.508000016       12027.3584       15812.3740    
  0.509000003       12043.1553       15782.4238    
  0.510000050       12058.9229       15752.4834    
  0.511000037       12074.6602       15722.5518    
  0.512000024       12090.3672       15692.6299    
  0.513000011       12106.0449       15662.7168    
  0.513999999       12121.6924       15632.8145    
  0.515000045       12137.3105       15602.9209    
  0.516000032       12152.8984       15573.0361    
  0.517000020       12168.4561       15543.1621    
  0.518000007       12183.9844       15513.2969    
  0.519000053       12199.4824       15483.4404    
  0.520000041       12214.9512       15453.5938    
  0.521000028       12230.3896       15423.7568    
  0.522000015       12245.7979       15393.9316    
  0.523000002       12261.1768       15364.1152    
  0.524000049       12276.5264       15334.3076    
  0.525000036       12291.8457       15304.5098    
  0.526000023       12307.1357       15274.7217    
  0.527000010       12322.3955       15244.9443    
  0.527999997       12337.6260       15215.1768    
  0.529000044       12352.8252       15185.4189    
  0.530000031       12367.9961       15155.6699    
  0.531000018       12383.1367       15125.9316    
  0.532000005       12398.2480       15096.2041    
  0.533000052       12413.3291       15066.4844    
  0.534000039       12428.3809       15036.7764    
  0.535000026       12443.4033       15007.0781    
  0.536000013       12458.3955       14977.3906    
  0.537000000       12473.3584       14947.7129    
  0.538000047       12488.2910       14918.0459    
  0.539000034       12503.1943       14888.3877    
  0.540000021       12518.0684       14858.7412    
  0.541000009       12532.9121       14829.1045    
  0.542000055       12547.7266       14799.4785    
  0.543000042       12562.5107       14769.8613    
  0.544000030       12577.2656       14740.2559    
  0.545000017       12591.9922       14710.6592    
  0.546000004       12606.6875       14681.0742    
  0.547000051       12621.3535       14651.5000    
  0.548000038       12635.9902       14621.9355    
  0.549000025       12650.5977       14592.3818    
  0.550000012       12665.1748       14562.8389    
  0.550999999       12679.7236       14533.3057    
  0.552000046       12694.2422       14503.7832    
  0.553000033       12708.7314       14474.2715    
  0.554000020       12723.1914       14444.7695    
  0.555000007       12737.6211       14415.2793    
  0.556000054       12752.0215       14385.7988    
  0.557000041       12766.3926       14356.3301    
  0.558000028       12780.7344       14326.8730    
  0.559000015       12795.0469       14297.4258    
  0.560000002       12809.3291       14267.9883    
  0.561000049       12823.5820       14238.5625    
  0.562000036       12837.8066       14209.1465    
  0.563000023       12852.0010       14179.7422    
  0.564000010       12866.1660       14150.3496    
  0.564999998       12880.3018       14120.9668    
  0.566000044       12894.4082       14091.5957    
  0.567000031       12908.4854       14062.2354    
  0.568000019       12922.5332       14032.8857    
  0.569000006       12936.5518       14003.5479    
  0.570000052       12950.5400       13974.2207    
  0.571000040       12964.5000       13944.9043    
  0.572000027       12978.4307       13915.5996    
  0.573000014       12992.3311       13886.3066    
  0.574000001       13006.2021       13857.0254    
  0.575000048       13020.0449       13827.7549    
  0.576000035       13033.8584       13798.4951    
  0.577000022       13047.6416       13769.2461    
  0.578000009       13061.3965       13740.0088    
  0.579000056       13075.1211       13710.7842    
  0.580000043       13088.8174       13681.5703    
  0.581000030       13102.4844       13652.3672    
  0.582000017       13116.1221       13623.1748    
  0.583000004       13129.7314       13593.9961    
  0.584000051       13143.3105       13564.8271    
  0.585000038       13156.8613       13535.6699    
  0.586000025       13170.3828       13506.5254    
  0.587000012       13183.8750       13477.3916    
  0.588000000       13197.3379       13448.2705    
  0.589000046       13210.7725       13419.1602    
  0.590000033       13224.1768       13390.0615    
  0.591000021       13237.5527       13360.9746    
  0.592000008       13250.8984       13331.8994    
  0.593000054       13264.2158       13302.8369    
  0.594000041       13277.5039       13273.7842    
  0.595000029       13290.7637       13244.7451    
  0.596000016       13303.9932       13215.7188    
  0.597000003       13317.1943       13186.7031    
  0.598000050       13330.3672       13157.6992    
  0.599000037       13343.5098       13128.7080    
  0.600000024       13356.6250       13099.7285    
  0.601000011       13369.7100       13070.7607    
  0.602000058       13382.7666       13041.8057    
  0.603000045       13395.7930       13012.8623    
  0.604000032       13408.7910       12983.9307    
  0.605000019       13421.7607       12955.0117    
  0.606000006       13434.7012       12926.1045    
  0.607000053       13447.6133       12897.2100    
  0.608000040       13460.4961       12868.3271    
  0.609000027       13473.3496       12839.4570    
  0.610000014       13486.1758       12810.5996    
  0.611000001       13498.9727       12781.7529    
  0.612000048       13511.7393       12752.9199    
  0.613000035       13524.4775       12724.0996    
  0.614000022       13537.1885       12695.2910    
  0.615000010       13549.8691       12666.4961    
  0.616000056       13562.5215       12637.7119    
  0.617000043       13575.1445       12608.9414    
  0.618000031       13587.7393       12580.1826    
  0.619000018       13600.3047       12551.4365    
  0.620000005       13612.8418       12522.7031    
  0.621000051       13625.3506       12493.9824    
  0.622000039       13637.8301       12465.2744    
  0.623000026       13650.2812       12436.5801    
  0.624000013       13662.7031       12407.8975    
  0.625000000       13675.0977       12379.2285    
  0.626000047       13687.4619       12350.5713    
  0.627000034       13699.7979       12321.9277    
  0.628000021       13712.1055       12293.2969    
  0.629000008       13724.3848       12264.6777    
  0.630000055       13736.6357       12236.0732    
  0.631000042       13748.8574       12207.4805    
  0.632000029       13761.0498       12178.9014    
  0.633000016       13773.2139       12150.3350    
  0.634000003       13785.3506       12121.7812    
  0.635000050       13797.4580       12093.2412    
  0.636000037       13809.5381       12064.7139    
  0.637000024       13821.5889       12036.2002    
  0.638000011       13833.6104       12007.6982    
  0.639000058       13845.6035       11979.2109    
  0.640000045       13857.5684       11950.7363    
  0.641000032       13869.5039       11922.2754    
  0.642000020       13881.4121       11893.8262    
  0.643000007       13893.2920       11865.3916    
  0.644000053       13905.1436       11836.9697    
  0.645000041       13916.9668       11808.5615    
  0.646000028       13928.7617       11780.1660    
  0.647000015       13940.5273       11751.7842    
  0.648000002       13952.2656       11723.4160    
  0.649000049       13963.9756       11695.0615    
  0.650000036       13975.6572       11666.7207    
  0.651000023       13987.3105       11638.3936    
  0.652000010       13998.9355       11610.0801    
  0.653000057       14010.5312       11581.7793    
  0.654000044       14022.0996       11553.4922    
  0.655000031       14033.6396       11525.2197    
  0.656000018       14045.1514       11496.9600    
  0.657000005       14056.6348       11468.7139    
  0.658000052       14068.0898       11440.4814    
  0.659000039       14079.5166       11412.2637    
  0.660000026       14090.9141       11384.0596    
  0.661000013       14102.2842       11355.8682    
  0.662000060       14113.6260       11327.6914    
  0.663000047       14124.9395       11299.5283    
  0.664000034       14136.2246       11271.3799    
  0.665000021       14147.4814       11243.2451    
  0.666000009       14158.7109       11215.1240    
  0.667000055       14169.9131       11187.0166    
  0.668000042       14181.0859       11158.9238    
  0.669000030       14192.2314       11130.8447    
  0.670000017       14203.3477       11102.7803    
  0.671000004       14214.4365       11074.7295    
  0.672000051       14225.4961       11046.6934    
  0.673000038       14236.5293       11018.6709    
  0.674000025       14247.5342       10990.6631    
  0.675000012       14258.5107       10962.6689    
  0.676000059       14269.4600       10934.6895    
  0.677000046       14280.3799       10906.7236    
  0.678000033       14291.2725       10878.7725    
  0.679000020       14302.1377       10850.8350    
  0.680000007       14312.9746       10822.9131    
  0.681000054       14323.7832       10795.0049    
  0.682000041       14334.5645       10767.1104    
  0.683000028       14345.3174       10739.2314    
  0.684000015       14356.0430       10711.3662    
  0.685000062       14366.7412       10683.5166    
  0.686000049       14377.4111       10655.6807    
  0.687000036       14388.0518       10627.8604    
  0.688000023       14398.6650       10600.0537    
  0.689000010       14409.2520       10572.2617    
  0.690000057       14419.8105       10544.4844    
  0.691000044       14430.3398       10516.7217    
  0.692000031       14440.8428       10488.9736    
  0.693000019       14451.3184       10461.2412    
  0.694000006       14461.7656       10433.5225    
  0.695000052       14472.1855       10405.8193    
  0.696000040       14482.5771       10378.1309    
  0.697000027       14492.9414       10350.4570    
  0.698000014       14503.2783       10322.7979    
  0.699000061       14513.5879       10295.1543    
  0.700000048       14523.8691       10267.5254    
  0.701000035       14534.1221       10239.9111    
  0.702000022       14544.3477       10212.3125    
  0.703000009       14554.5459       10184.7285    
  0.704000056       14564.7168       10157.1592    
  0.705000043       14574.8604       10129.6055    
  0.706000030       14584.9766       10102.0664    
  0.707000017       14595.0635       10074.5430    
  0.708000004       14605.1250       10047.0342    
  0.709000051       14615.1572       10019.5420    
  0.710000038       14625.1641       9992.06445    
  0.711000025       14635.1416       9964.60156    
  0.712000012       14645.0918       9937.15430    
  0.713000059       14655.0166       9909.72168    
  0.714000046       14664.9121       9882.30566    
  0.715000033       14674.7812       9854.90332    
  0.716000021       14684.6221       9827.51758    
  0.717000008       14694.4355       9800.14746    
  0.718000054       14704.2217       9772.79199    
  0.719000041       14713.9805       9745.45215    
  0.720000029       14723.7129       9718.12891    
  0.721000016       14733.4170       9690.82031    
  0.722000062       14743.0938       9663.52734    
  0.723000050       14752.7441       9636.25000    
  0.724000037       14762.3662       9608.98828    
  0.725000024       14771.9619       9581.74219    
  0.726000011       14781.5303       9554.51270    
  0.727000058       14791.0703       9527.29785    
  0.728000045       14800.5840       9500.09961    
  0.729000032       14810.0713       9472.91699    
  0.730000019       14819.5312       9445.75000    
  0.731000006       14828.9629       9418.59863    
  0.732000053       14838.3672       9391.46289    
  0.733000040       14847.7461       9364.34277    
  0.734000027       14857.0977       9337.23828    
  0.735000014       14866.4209       9310.15039    
  0.736000061       14875.7168       9283.07910    
  0.737000048       14884.9863       9256.02246    
  0.738000035       14894.2295       9228.98242    
  0.739000022       14903.4453       9201.95898    
  0.740000010       14912.6338       9174.95117    
  0.741000056       14921.7949       9147.95996    
  0.742000043       14930.9287       9120.98340    
  0.743000031       14940.0371       9094.02441    
  0.744000018       14949.1172       9067.08105    
  0.745000064       14958.1719       9040.15430    
  0.746000051       14967.1992       9013.24316    
  0.747000039       14976.1982       8986.34961    
  0.748000026       14985.1709       8959.47070    
  0.749000013       14994.1162       8932.60938    
  0.750000060       15003.0352       8905.76367    
  0.751000047       15011.9268       8878.93457    
  0.752000034       15020.7920       8852.12109    
  0.753000021       15029.6309       8825.32520    
  0.754000008       15038.4424       8798.54492    
  0.755000055       15047.2275       8771.78125    
  0.756000042       15055.9863       8745.03418    
  0.757000029       15064.7178       8718.30371    
  0.758000016       15073.4229       8691.58984    
  0.759000063       15082.1006       8664.89160    
  0.760000050       15090.7520       8638.21191    
  0.761000037       15099.3770       8611.54785    
  0.762000024       15107.9746       8584.90137    
  0.763000011       15116.5459       8558.27051    
  0.764000058       15125.0898       8531.65625    
  0.765000045       15133.6084       8505.05957    
  0.766000032       15142.1006       8478.47949    
  0.767000020       15150.5664       8451.91504    
  0.768000007       15159.0049       8425.36914    
  0.769000053       15167.4170       8398.83887    
  0.770000041       15175.8027       8372.32617    
  0.771000028       15184.1621       8345.83008    
  0.772000015       15192.4941       8319.35156    
  0.773000062       15200.8008       8292.88867    
  0.774000049       15209.0811       8266.44434    
  0.775000036       15217.3340       8240.01660    
  0.776000023       15225.5605       8213.60547    
  0.777000010       15233.7607       8187.21143    
  0.778000057       15241.9355       8160.83496    
  0.779000044       15250.0830       8134.47559    
  0.780000031       15258.2041       8108.13281    
  0.781000018       15266.2988       8081.80713    
  0.782000065       15274.3682       8055.49902    
  0.783000052       15282.4102       8029.20850    
  0.784000039       15290.4258       8002.93506    
  0.785000026       15298.4150       7976.67871    
  0.786000013       15306.3789       7950.43994    
  0.787000060       15314.3164       7924.21826    
  0.788000047       15322.2266       7898.01367    
  0.789000034       15330.1123       7871.82666    
  0.790000021       15337.9707       7845.65723    
  0.791000009       15345.8037       7819.50488    
  0.792000055       15353.6104       7793.37061    
  0.793000042       15361.3896       7767.25342    
  0.794000030       15369.1445       7741.15381    
  0.795000017       15376.8721       7715.07227    
  0.796000063       15384.5752       7689.00830    
  0.797000051       15392.2510       7662.96094    
  0.798000038       15399.9004       7636.93213    
  0.799000025       15407.5244       7610.92090    
  0.800000012       15415.1221       7584.92725    
  0.801000059       15422.6934       7558.95117    
  0.802000046       15430.2393       7532.99316    
  0.803000033       15437.7598       7507.05225    
  0.804000020       15445.2529       7481.12939    
  0.805000067       15452.7207       7455.22412    
  0.806000054       15460.1621       7429.33691    
  0.807000041       15467.5791       7403.46777    
  0.808000028       15474.9697       7377.61670    
  0.809000015       15482.3350       7351.78271    
  0.810000062       15489.6738       7325.96729    
  0.811000049       15496.9863       7300.16943    
  0.812000036       15504.2734       7274.39014    
  0.813000023       15511.5361       7248.62842    
  0.814000010       15518.7715       7222.88525    
  0.815000057       15525.9814       7197.16016    
  0.816000044       15533.1650       7171.45312    
  0.817000031       15540.3232       7145.76367    
  0.818000019       15547.4570       7120.09277    
  0.819000065       15554.5645       7094.43994    
  0.820000052       15561.6455       7068.80518    
  0.821000040       15568.7021       7043.18848    
  0.822000027       15575.7334       7017.58984    
  0.823000014       15582.7373       6992.00977    
  0.824000061       15589.7158       6966.44775    
  0.825000048       15596.6699       6940.90430    
  0.826000035       15603.5986       6915.37891    
  0.827000022       15610.5010       6889.87256    
  0.828000069       15617.3770       6864.38379    
  0.829000056       15624.2285       6838.91357    
  0.830000043       15631.0557       6813.46191    
  0.831000030       15637.8564       6788.02881    
  0.832000017       15644.6328       6762.61426    
  0.833000064       15651.3818       6737.21777    
  0.834000051       15658.1055       6711.84033    
  0.835000038       15664.8047       6686.48096    
  0.836000025       15671.4785       6661.14014    
  0.837000012       15678.1270       6635.81836    
  0.838000059       15684.7510       6610.51514    
  0.839000046       15691.3486       6585.23047    
  0.840000033       15697.9219       6559.96436    
  0.841000021       15704.4697       6534.71729    
  0.842000067       15710.9932       6509.48877    
  0.843000054       15717.4902       6484.27881    
  0.844000041       15723.9629       6459.08789    
  0.845000029       15730.4102       6433.91553    
  0.846000016       15736.8320       6408.76221    
  0.847000062       15743.2285       6383.62793    
  0.848000050       15749.6006       6358.51221    
  0.849000037       15755.9473       6333.41553    
  0.850000024       15762.2686       6308.33789    
  0.851000011       15768.5645       6283.27881    
  0.852000058       15774.8359       6258.23877    
  0.853000045       15781.0820       6233.21777    
  0.854000032       15787.3027       6208.21582    
  0.855000019       15793.4980       6183.23291    
  0.856000066       15799.6680       6158.26904    
  0.857000053       15805.8135       6133.32422    
  0.858000040       15811.9346       6108.39844    
  0.859000027       15818.0312       6083.49219    
  0.860000014       15824.1025       6058.60498    
  0.861000061       15830.1484       6033.73682    
  0.862000048       15836.1699       6008.88770    
  0.863000035       15842.1650       5984.05811    
  0.864000022       15848.1377       5959.24756    
  0.865000069       15854.0840       5934.45654    
  0.866000056       15860.0059       5909.68457    
  0.867000043       15865.9023       5884.93213    
  0.868000031       15871.7754       5860.19873    
  0.869000018       15877.6230       5835.48486    
  0.870000064       15883.4463       5810.79053    
  0.871000051       15889.2451       5786.11523    
  0.872000039       15895.0195       5761.45947    
  0.873000026       15900.7676       5736.82373    
  0.874000013       15906.4932       5712.20654    
  0.875000060       15912.1924       5687.60938    
  0.876000047       15917.8672       5663.03174    
  0.877000034       15923.5186       5638.47363    
  0.878000021       15929.1445       5613.93506    
  0.879000068       15934.7471       5589.41602    
  0.880000055       15940.3242       5564.91699    
  0.881000042       15945.8760       5540.43750    
  0.882000029       15951.4053       5515.97754    
  0.883000016       15956.9082       5491.53711    
  0.884000063       15962.3877       5467.11670    
  0.885000050       15967.8428       5442.71533    
  0.886000037       15973.2734       5418.33447    
  0.887000024       15978.6787       5393.97266    
  0.888000071       15984.0615       5369.63135    
  0.889000058       15989.4180       5345.30908    
  0.890000045       15994.7520       5321.00732    
  0.891000032       16000.0596       5296.72510    
  0.892000020       16005.3447       5272.46338    
  0.893000066       16010.6055       5248.22070    
  0.894000053       16015.8408       5223.99854    
  0.895000041       16021.0537       5199.79590    
  0.896000028       16026.2402       5175.61328    
  0.897000015       16031.4033       5151.45068    
  0.898000062       16036.5439       5127.30811    
  0.899000049       16041.6582       5103.18604    
  0.900000036       16046.7490       5079.08350    
  0.901000023       16051.8174       5055.00098    
  0.902000070       16056.8594       5030.93896    
  0.903000057       16061.8779       5006.89648    
  0.904000044       16066.8730       4982.87500    
  0.905000031       16071.8447       4958.87305    
  0.906000018       16076.7910       4934.89160    
  0.907000065       16081.7139       4910.93018    
  0.908000052       16086.6123       4886.98926    
  0.909000039       16091.4883       4863.06787    
  0.910000026       16096.3389       4839.16748    
  0.911000073       16101.1650       4815.28711    
  0.912000060       16105.9688       4791.42725    
  0.913000047       16110.7480       4767.58740    
  0.914000034       16115.5039       4743.76807    
  0.915000021       16120.2363       4719.96924    
  0.916000068       16124.9453       4696.19043    
  0.917000055       16129.6289       4672.43262    
  0.918000042       16134.2891       4648.69434    
  0.919000030       16138.9258       4624.97705    
  0.920000017       16143.5381       4601.28027    
  0.921000063       16148.1270       4577.60400    
  0.922000051       16152.6934       4553.94824    
  0.923000038       16157.2354       4530.31299    
  0.924000025       16161.7539       4506.69824    
  0.925000072       16166.2480       4483.10400    
  0.926000059       16170.7197       4459.53076    
  0.927000046       16175.1670       4435.97803    
  0.928000033       16179.5908       4412.44580    
  0.929000020       16183.9912       4388.93408    
  0.930000067       16188.3682       4365.44336    
  0.931000054       16192.7217       4341.97314    
  0.932000041       16197.0508       4318.52393    
  0.933000028       16201.3574       4295.09521    
  0.934000015       16205.6416       4271.68750    
  0.935000062       16209.9014       4248.30029    
  0.936000049       16214.1387       4224.93408    
  0.937000036       16218.3516       4201.58838    
  0.938000023       16222.5410       4178.26367    
  0.939000070       16226.7070       4154.95996    
  0.940000057       16230.8516       4131.67725    
  0.941000044       16234.9717       4108.41504    
  0.942000031       16239.0684       4085.17407    
  0.943000019       16243.1416       4061.95386    
  0.944000065       16247.1914       4038.75464    
  0.945000052       16251.2188       4015.57642    
  0.946000040       16255.2227       3992.41919    
  0.947000027       16259.2031       3969.28320    
  0.948000073       16263.1611       3946.16797    
  0.949000061       16267.0957       3923.07397    
  0.950000048       16271.0068       3900.00098    
  0.951000035       16274.8965       3876.94897    
  0.952000022       16278.7617       3853.91846    
  0.953000069       16282.6035       3830.90869    
  0.954000056       16286.4238       3807.92017    
  0.955000043       16290.2197       3784.95288    
  0.956000030       16293.9941       3762.00684    
  0.957000017       16297.7451       3739.08203    
  0.958000064       16301.4717       3716.17847    
  0.959000051       16305.1768       3693.29614    
  0.960000038       16308.8584       3670.43481    
  0.961000025       16312.5176       3647.59497    
  0.962000072       16316.1533       3624.77637    
  0.963000059       16319.7676       3601.97900    
  0.964000046       16323.3574       3579.20288    
  0.965000033       16326.9258       3556.44849    
  0.966000021       16330.4707       3533.71509    
  0.967000067       16333.9932       3511.00342    
  0.968000054       16337.4922       3488.31299    
  0.969000041       16340.9688       3465.64380    
  0.970000029       16344.4238       3442.99634    
  0.971000075       16347.8545       3420.37036    
  0.972000062       16351.2637       3397.76587    
  0.973000050       16354.6514       3375.18286    
  0.974000037       16358.0146       3352.62134    
  0.975000024       16361.3564       3330.08130    
  0.976000071       16364.6758       3307.56274    
  0.977000058       16367.9727       3285.06592    
  0.978000045       16371.2461       3262.59058    
  0.979000032       16374.4980       3240.13696    
  0.980000019       16377.7266       3217.70483    
  0.981000066       16380.9326       3195.29468    
  0.982000053       16384.1172       3172.90576    
  0.983000040       16387.2793       3150.53882    
  0.984000027       16390.4180       3128.19336    
  0.985000074       16393.5352       3105.86987    
  0.986000061       16396.6289       3083.56787    
  0.987000048       16399.7012       3061.28760    
  0.988000035       16402.7520       3039.02930    
  0.989000022       16405.7812       3016.79272    
  0.990000069       16408.7852       2994.57764    
  0.991000056       16411.7695       2972.38477    
  0.992000043       16414.7305       2950.21338    
  0.993000031       16417.6680       2928.06396    
  0.994000018       16420.5859       2905.93677    
  0.995000064       16423.4805       2883.83105    
  0.996000051       16426.3535       2861.74731    
  0.997000039       16429.2031       2839.68579    
  0.998000026       16432.0332       2817.64575    
  0.999000072       16434.8398       2795.62793    
   1.00000000       16437.6230       2773.63232    
   1.00100005       16440.3867       2751.65820    
   1.00200009       16443.1270       2729.70630    
   1.00300002       16445.8457       2707.77637    
   1.00400007       16448.5430       2685.86841    
   1.00500000       16451.2168       2663.98267    
   1.00600004       16453.8691       2642.11890    
   1.00700009       16456.5000       2620.27734    
   1.00800002       16459.1094       2598.45776    
   1.00900006       16461.6973       2576.66040    
   1.00999999       16464.2637       2554.88501    
   1.01100004       16466.8086       2533.13184    
   1.01200008       16469.3301       2511.40088    
   1.01300001       16471.8301       2489.69214    
   1.01400006       16474.3086       2468.00537    
   1.01500010       16476.7656       2446.34106    
   1.01600003       16479.2012       2424.69873    
   1.01700008       16481.6152       2403.07886    
   1.01800001       16484.0078       2381.48096    
   1.01900005       16486.3789       2359.90552    
   1.02000010       16488.7285       2338.35254    
   1.02100003       16491.0547       2316.82153    
   1.02200007       16493.3613       2295.31299    
   1.02300000       16495.6465       2273.82690    
   1.02400005       16497.9082       2252.36304    
   1.02500010       16500.1504       2230.92163    
   1.02600002       16502.3691       2209.50244    
   1.02700007       16504.5684       2188.10596    
   1.02800000       16506.7461       2166.73169    
   1.02900004       16508.9023       2145.37964    
   1.03000009       16511.0371       2124.05029    
   1.03100002       16513.1504       2102.74341    
   1.03200006       16515.2422       2081.45898    
   1.03299999       16517.3125       2060.19678    
   1.03400004       16519.3633       2038.95740    
   1.03500009       16521.3906       2017.74036    
   1.03600001       16523.3984       1996.54590    
   1.03700006       16525.3828       1975.37390    
   1.03800011       16527.3477       1954.22449    
   1.03900003       16529.2910       1933.09766    
   1.04000008       16531.2148       1911.99353    
   1.04100001       16533.1152       1890.91199    
   1.04200006       16534.9961       1869.85303    
   1.04300010       16536.8555       1848.81677    
   1.04400003       16538.6934       1827.80310    
   1.04500008       16540.5098       1806.81201    
   1.04600000       16542.3066       1785.84351    
   1.04700005       16544.0820       1764.89783    
   1.04800010       16545.8359       1743.97485    
   1.04900002       16547.5703       1723.07446    
   1.05000007       16549.2832       1702.19678    
   1.05100000       16550.9746       1681.34204    
   1.05200005       16552.6445       1660.50977    
   1.05300009       16554.2949       1639.70044    
   1.05400002       16555.9258       1618.91394    
   1.05500007       16557.5332       1598.15002    
   1.05599999       16559.1211       1577.40906    
   1.05700004       16560.6875       1556.69080    
   1.05800009       16562.2344       1535.99548    
   1.05900002       16563.7598       1515.32300    
   1.06000006       16565.2656       1494.67334    
   1.06100011       16566.7500       1474.04651    
   1.06200004       16568.2129       1453.44263    
   1.06300008       16569.6543       1432.86169    
   1.06400001       16571.0781       1412.30371    
   1.06500006       16572.4785       1391.76855    
   1.06600010       16573.8613       1371.25635    
   1.06700003       16575.2207       1350.76697    
   1.06800008       16576.5625       1330.30078    
   1.06900001       16577.8828       1309.85730    
   1.07000005       16579.1816       1289.43701    
   1.07100010       16580.4609       1269.03955    
   1.07200003       16581.7188       1248.66528    
   1.07300007       16582.9570       1228.31384    
   1.07400000       16584.1758       1207.98560    
   1.07500005       16585.3730       1187.68042    
   1.07600009       16586.5488       1167.39819    
   1.07700002       16587.7070       1147.13904    
   1.07800007       16588.8438       1126.90308    
   1.07900000       16589.9609       1106.69006    
   1.08000004       16591.0586       1086.50037    
   1.08100009       16592.1348       1066.33362    
   1.08200002       16593.1895       1046.19006    
   1.08300006       16594.2266       1026.06970    
   1.08400011       16595.2422       1005.97241    
   1.08500004       16596.2383       985.898315    
   1.08600008       16597.2148       965.847351    
   1.08700001       16598.1699       945.819641    
   1.08800006       16599.1074       925.815063    
   1.08900011       16600.0215       905.833740    
   1.09000003       16600.9180       885.875610    
   1.09100008       16601.7930       865.940796    
   1.09200001       16602.6504       846.029114    
   1.09300005       16603.4844       826.140808    
   1.09400010       16604.3008       806.275757    
   1.09500003       16605.0977       786.433960    
   1.09600008       16605.8750       766.615417    
   1.09700000       16606.6309       746.820251    
   1.09800005       16607.3672       727.048340    
   1.09900010       16608.0859       707.299744    
   1.10000002       16608.7832       687.574463    
   1.10100007       16609.4609       667.872620    
   1.10200000       16610.1172       648.194092    
   1.10300004       16610.7559       628.538879    
   1.10400009       16611.3750       608.907104    
   1.10500002       16611.9746       589.298645    
   1.10600007       16612.5527       569.713623    
   1.10699999       16613.1133       550.152100    
   1.10800004       16613.6523       530.613892    
   1.10900009       16614.1738       511.099121    
   1.11000001       16614.6758       491.607819    
   1.11100006       16615.1562       472.139954    
   1.11200011       16615.6191       452.695526    
   1.11300004       16616.0625       433.274628    
   1.11400008       16616.4863       413.877136    
   1.11500001       16616.8906       394.503174    
   1.11600006       16617.2773       375.152740    
   1.11700010       16617.6406       355.825775    
   1.11800003       16617.9883       336.522339    
   1.11900008       16618.3145       317.242432    
   1.12000000       16618.6230       297.986053    
   1.12100005       16618.9102       278.753235    
   1.12200010       16619.1797       259.543976    
   1.12300003       16619.4297       240.358292    
   1.12400007       16619.6621       221.196182    
   1.12500000       16619.8730       202.057663    
   1.12600005       16620.0664       182.942734    
   1.12700009       16620.2383       163.851410    
   1.12800002       16620.3926       144.783691    
   1.12900007       16620.5293       125.739594    
   1.13000000       16620.6445       106.719139    
   1.13100004       16620.7422       87.7223129    
   1.13200009       16620.8203       68.7491379    
   1.13300002       16620.8809       49.7996254    
   1.13400006       16620.9219       30.8737812    
   1.13500011       16620.9434       11.9716072    
   1.13600004       16620.9473      -6.90688372    
   1.13700008       16620.9316      -25.7616806    
   1.13800001       16620.8965      -44.5927811    
   1.13900006       16620.8438      -63.4001656    
   1.14000010       16620.7715      -82.1838303    
   1.14100003       16620.6797      -100.943779    
   1.14200008       16620.5684      -119.679985    
   1.14300001       16620.4395      -138.392441    
   1.14400005       16620.2930      -157.081161    
   1.14500010       16620.1250      -175.746109    
   1.14600003       16619.9395      -194.387299    
   1.14700007       16619.7363      -213.004715    
   1.14800000       16619.5156      -231.598343    
   1.14900005       16619.2754      -250.168167    
   1.15000010       16619.0156      -268.714203    
   1.15100002       16618.7363      -287.236420    
   1.15200007       16618.4414      -305.734863    
   1.15300000       16618.1250      -324.209442    
   1.15400004       16617.7930      -342.660187    
   1.15500009       16617.4395      -361.087128    
   1.15600002       16617.0703      -379.490204    
   1.15700006       16616.6816      -397.869446    
   1.15800011       16616.2734      -416.224792    
   1.15900004       16615.8496      -434.556335    
   1.16000009       16615.4062      -452.863953    
   1.16100001       16614.9434      -471.147705    
   1.16200006       16614.4629      -489.407562    
   1.16300011       16613.9648      -507.643494    
   1.16400003       16613.4492      -525.855591    
   1.16500008       16612.9141      -544.043701    
   1.16600001       16612.3594      -562.207947    
   1.16700006       16611.7891      -580.348267    
   1.16800010       16611.1992      -598.464661    
   1.16900003       16610.5918      -616.557068    
   1.17000008       16609.9648      -634.625610    
   1.17100000       16609.3223      -652.670166    
   1.17200005       16608.6602      -670.690735    
   1.17300010       16607.9805      -688.687378    
   1.17400002       16607.2832      -706.660034    
   1.17500007       16606.5664      -724.608765    
   1.17600000       16605.8340      -742.533447    
   1.17700005       16605.0820      -760.434143    
   1.17800009       16604.3125      -778.310852    
   1.17900002       16603.5254      -796.163574    
   1.18000007       16602.7207      -813.992249    
   1.18100011       16601.8984      -831.796997    
   1.18200004       16601.0566      -849.577637    
   1.18300009       16600.1992      -867.334290    
   1.18400002       16599.3223      -885.066956    
   1.18500006       16598.4277      -902.775513    
   1.18600011       16597.5176      -920.460083    
   1.18700004       16596.5879      -938.120544    
   1.18800008       16595.6406      -955.757019    
   1.18900001       16594.6758      -973.369446    
   1.19000006       16593.6953      -990.957764    
   1.19100010       16592.6953      -1008.52197    
   1.19200003       16591.6777      -1026.06226    
   1.19300008       16590.6426      -1043.57837    
   1.19400001       16589.5898      -1061.07043    
   1.19500005       16588.5195      -1078.53833    
   1.19600010       16587.4336      -1095.98218    
   1.19700003       16586.3281      -1113.40198    
   1.19800007       16585.2070      -1130.79761    
   1.19900000       16584.0684      -1148.16919    
   1.20000005       16582.9121      -1165.51648    
   1.20100009       16581.7383      -1182.83984    
   1.20200002       16580.5469      -1200.13904    
   1.20300007       16579.3379      -1217.41406    
   1.20400012       16578.1133      -1234.66504    
   1.20500004       16576.8711      -1251.89185    
   1.20600009       16575.6094      -1269.09448    
   1.20700002       16574.3320      -1286.27295    
   1.20800006       16573.0371      -1303.42725    
   1.20900011       16571.7266      -1320.55750    
   1.21000004       16570.3965      -1337.66345    
   1.21100008       16569.0488      -1354.74536    
   1.21200001       16567.6855      -1371.80310    
   1.21300006       16566.3066      -1388.83655    
   1.21400011       16564.9082      -1405.84595    
   1.21500003       16563.4941      -1422.83105    
   1.21600008       16562.0625      -1439.79199    
   1.21700001       16560.6133      -1456.72888    
   1.21800005       16559.1484      -1473.64148    
   1.21900010       16557.6660      -1490.52979    
   1.22000003       16556.1680      -1507.39404    
   1.22100008       16554.6523      -1524.23401    
   1.22200000       16553.1211      -1541.04993    
   1.22300005       16551.5703      -1557.84143    
   1.22400010       16550.0039      -1574.60876    
   1.22500002       16548.4219      -1591.35193    
   1.22600007       16546.8203      -1608.07092    
   1.22700012       16545.2051      -1624.76562    
   1.22800004       16543.5723      -1641.43616    
   1.22900009       16541.9219      -1658.08252    
   1.23000002       16540.2559      -1674.70459    
   1.23100007       16538.5723      -1691.30237    
   1.23200011       16536.8730      -1707.87585    
   1.23300004       16535.1562      -1724.42529    
   1.23400009       16533.4238      -1740.95044    
   1.23500001       16531.6758      -1757.45117    
   1.23600006       16529.9102      -1773.92786    
   1.23700011       16528.1270      -1790.38025    
   1.23800004       16526.3301      -1806.80823    
   1.23900008       16524.5137      -1823.21204    
   1.24000001       16522.6816      -1839.59167    
   1.24100006       16520.8359      -1855.94702    
   1.24200010       16518.9707      -1872.27808    
   1.24300003       16517.0918      -1888.58472    
   1.24400008       16515.1934      -1904.86731    
   1.24500000       16513.2812      -1921.12561    
   1.24600005       16511.3516      -1937.35950    
   1.24700010       16509.4062      -1953.56921    
   1.24800003       16507.4434      -1969.75452    
   1.24900007       16505.4668      -1985.91577    
   1.25000000       16503.4727      -2002.05249    
   1.25100005       16501.4629      -2018.16504    
   1.25200009       16499.4355      -2034.25354    
   1.25300002       16497.3945      -2050.31738    
   1.25400007       16495.3359      -2066.35742    
   1.25500011       16493.2598      -2082.37280    
   1.25600004       16491.1699      -2098.36401    
   1.25700009       16489.0625      -2114.33081    
   1.25800002       16486.9414      -2130.27344    
   1.25900006       16484.8027      -2146.19165    
   1.26000011       16482.6484      -2162.08545    
   1.26100004       16480.4805      -2177.95532    
   1.26200008       16478.2949      -2193.80054    
   1.26300001       16476.0938      -2209.62183    
   1.26400006       16473.8750      -2225.41846    
   1.26500010       16471.6406      -2241.19092    
   1.26600003       16469.3906      -2256.93921    
   1.26700008       16467.1250      -2272.66309    
   1.26800001       16464.8438      -2288.36255    
   1.26900005       16462.5469      -2304.03784    
   1.27000010       16460.2363      -2319.68896    
   1.27100003       16457.9102      -2335.31543    
   1.27200007       16455.5664      -2350.91772    
   1.27300000       16453.2090      -2366.49585    
   1.27400005       16450.8340      -2382.04956    
   1.27500010       16448.4453      -2397.57910    
   1.27600002       16446.0391      -2413.08423    
   1.27700007       16443.6172      -2428.56494    
   1.27800012       16441.1816      -2444.02148    
   1.27900004       16438.7305      -2459.45361    
   1.28000009       16436.2637      -2474.86157    
   1.28100002       16433.7812      -2490.24512    
   1.28200006       16431.2812      -2505.60425    
   1.28300011       16428.7695      -2520.93921    
   1.28400004       16426.2422      -2536.24976    
   1.28500009       16423.6973      -2551.53638    
   1.28600001       16421.1367      -2566.79834    
   1.28700006       16418.5645      -2582.03589    
   1.28800011       16415.9746      -2597.24951    
   1.28900003       16413.3691      -2612.43848    
   1.29000008       16410.7500      -2627.60352    
   1.29100001       16408.1133      -2642.74390    
   1.29200006       16405.4629      -2657.86011    
   1.29300010       16402.7988      -2672.95190    
   1.29400003       16400.1172      -2688.01953    
   1.29500008       16397.4219      -2703.06299    
   1.29600000       16394.7109      -2718.08179    
   1.29700005       16391.9863      -2733.07642    
   1.29800010       16389.2461      -2748.04688    
   1.29900002       16386.4902      -2762.99292    
   1.30000007       16383.7207      -2777.91455    
   1.30100012       16380.9355      -2792.81201    
   1.30200005       16378.1357      -2807.68530    
   1.30300009       16375.3213      -2822.53418    
   1.30400002       16372.4902      -2837.35889    
   1.30500007       16369.6465      -2852.15918    
   1.30600011       16366.7861      -2866.93530    
   1.30700004       16363.9121      -2881.68701    
   1.30800009       16361.0234      -2896.41455    
   1.30900002       16358.1191      -2911.11768    
   1.31000006       16355.2002      -2925.79663    
   1.31100011       16352.2676      -2940.45117    
   1.31200004       16349.3193      -2955.08154    
   1.31300008       16346.3574      -2969.68750    
   1.31400001       16343.3809      -2984.26929    
   1.31500006       16340.3896      -2998.82666    
   1.31600010       16337.3828      -3013.35986    
   1.31700003       16334.3623      -3027.86890    
   1.31800008       16331.3281      -3042.35352    
   1.31900001       16328.2783      -3056.81396    
   1.32000005       16325.2139      -3071.25000    
   1.32100010       16322.1348      -3085.66187    
   1.32200003       16319.0420      -3100.04932    
   1.32300007       16315.9346      -3114.41260    
   1.32400012       16312.8135      -3128.75171    
   1.32500005       16309.6777      -3143.06665    
   1.32600009       16306.5283      -3157.35718    
   1.32700002       16303.3643      -3171.62354    
   1.32800007       16300.1865      -3185.86572    
   1.32900012       16296.9932      -3200.08350    
   1.33000004       16293.7852      -3214.27710    
   1.33100009       16290.5625      -3228.44629    
   1.33200002       16287.3271      -3242.59131    
   1.33300006       16284.0762      -3256.71216    
   1.33400011       16280.8115      -3270.80884    
   1.33500004       16277.5352      -3284.88135    
   1.33600008       16274.2432      -3298.92969    
   1.33700001       16270.9385      -3312.95361    
   1.33800006       16267.6182      -3326.95312    
   1.33900011       16264.2852      -3340.92896    
   1.34000003       16260.9365      -3354.88013    
   1.34100008       16257.5742      -3368.80762    
   1.34200001       16254.1982      -3382.71045    
   1.34300005       16250.8076      -3396.58911    
   1.34400010       16247.4053      -3410.44360    
   1.34500003       16243.9883      -3424.27368    
   1.34600008       16240.5566      -3438.07983    
   1.34700012       16237.1113      -3451.86182    
   1.34800005       16233.6533      -3465.61963    
   1.34900010       16230.1807      -3479.35303    
   1.35000002       16226.6943      -3493.06226    
   1.35100007       16223.1943      -3506.74780    
   1.35200012       16219.6807      -3520.40894    
   1.35300004       16216.1533      -3534.04590    
   1.35400009       16212.6123      -3547.65869    
   1.35500002       16209.0586      -3561.24731    
   1.35600007       16205.4902      -3574.81152    
   1.35700011       16201.9082      -3588.35181    
   1.35800004       16198.3125      -3601.86816    
   1.35900009       16194.7041      -3615.36011    
   1.36000001       16191.0820      -3628.82788    
   1.36100006       16187.4463      -3642.27197    
   1.36200011       16183.7979      -3655.69141    
   1.36300004       16180.1357      -3669.08716    
   1.36400008       16176.4600      -3682.45850    
   1.36500001       16172.7715      -3695.80591    
   1.36600006       16169.0693      -3709.12891    
   1.36700010       16165.3535      -3722.42822    
   1.36800003       16161.6240      -3735.70288    
   1.36900008       16157.8818      -3748.95386    
   1.37000012       16154.1260      -3762.18066    
   1.37100005       16150.3564      -3775.38354    
   1.37200010       16146.5742      -3788.56226    
   1.37300003       16142.7803      -3801.71680    
   1.37400007       16138.9707      -3814.84717    
   1.37500012       16135.1494      -3827.95361    
   1.37600005       16131.3154      -3841.03613    
   1.37700009       16127.4678      -3854.09473    
   1.37800002       16123.6064      -3867.12915    
   1.37900007       16119.7334      -3880.13916    
   1.38000011       16115.8477      -3893.12549    
   1.38100004       16111.9473      -3906.08740    
   1.38200009       16108.0342      -3919.02563    
   1.38300002       16104.1094      -3931.93970    
   1.38400006       16100.1709      -3944.82983    
   1.38500011       16096.2188      -3957.69604    
   1.38600004       16092.2549      -3970.53833    
   1.38700008       16088.2773      -3983.35645    
   1.38800001       16084.2871      -3996.15063    
   1.38900006       16080.2852      -4008.92065    
   1.39000010       16076.2705      -4021.66699    
   1.39100003       16072.2422      -4034.38916    
   1.39200008       16068.2021      -4047.08740    
   1.39300001       16064.1494      -4059.76147    
   1.39400005       16060.0840      -4072.41187    
   1.39500010       16056.0049      -4085.03833    
   1.39600003       16051.9131      -4097.64111    
   1.39700007       16047.8086      -4110.21973    
   1.39800012       16043.6914      -4122.77441    
   1.39900005       16039.5615      -4135.30518    
   1.40000010       16035.4199      -4147.81152    
   1.40100002       16031.2666      -4160.29492    
   1.40200007       16027.1006      -4172.75391    
   1.40300012       16022.9219      -4185.18896    
   1.40400004       16018.7314      -4197.60010    
   1.40500009       16014.5273      -4209.98730    
   1.40600002       16010.3115      -4222.35107    
   1.40700006       16006.0820      -4234.69043    
   1.40800011       16001.8408      -4247.00635    
   1.40900004       15997.5879      -4259.29834    
   1.41000009       15993.3232      -4271.56641    
   1.41100001       15989.0449      -4283.81055    
   1.41200006       15984.7549      -4296.03076    
   1.41300011       15980.4521      -4308.22754    
   1.41400003       15976.1377      -4320.40039    
   1.41500008       15971.8115      -4332.54932    
   1.41600001       15967.4727      -4344.67432    
   1.41700006       15963.1230      -4356.77539    
   1.41800010       15958.7598      -4368.85303    
   1.41900003       15954.3848      -4380.90674    
   1.42000008       15949.9980      -4392.93652    
   1.42100012       15945.5996      -4404.94287    
   1.42200005       15941.1885      -4416.92529    
   1.42300010       15936.7656      -4428.88379    
   1.42400002       15932.3311      -4440.81885    
   1.42500007       15927.8848      -4452.72998    
   1.42600012       15923.4258      -4464.61768    
   1.42700005       15918.9551      -4476.48096    
   1.42800009       15914.4727      -4488.32129    
   1.42900002       15909.9775      -4500.13770    
   1.43000007       15905.4717      -4511.93018    
   1.43100011       15900.9531      -4523.69922    
   1.43200004       15896.4238      -4535.44434    
   1.43300009       15891.8818      -4547.16602    
   1.43400002       15887.3291      -4558.86377    
   1.43500006       15882.7646      -4570.53857    
   1.43600011       15878.1885      -4582.18896    
   1.43700004       15873.6006      -4593.81641    
   1.43800008       15869.0000      -4605.41992    
   1.43900001       15864.3896      -4616.99951    
   1.44000006       15859.7666      -4628.55566    
   1.44100010       15855.1318      -4640.08789    
   1.44200003       15850.4863      -4651.59668    
   1.44300008       15845.8291      -4663.08203    
   1.44400012       15841.1602      -4674.54395    
   1.44500005       15836.4795      -4685.98242    
   1.44600010       15831.7881      -4697.39746    
   1.44700003       15827.0859      -4708.78857    
   1.44800007       15822.3701      -4720.15625    
   1.44900012       15817.6445      -4731.50000    
   1.45000005       15812.9072      -4742.82080    
   1.45100009       15808.1592      -4754.11768    
   1.45200002       15803.4004      -4765.39160    
   1.45300007       15798.6279      -4776.64160    
   1.45400012       15793.8457      -4787.86768    
   1.45500004       15789.0518      -4799.07129    
   1.45600009       15784.2471      -4810.25049    
   1.45700002       15779.4316      -4821.40674    
   1.45800006       15774.6045      -4832.53955    
   1.45900011       15769.7666      -4843.64893    
   1.46000004       15764.9180      -4854.73486    
   1.46100008       15760.0586      -4865.79736    
   1.46200001       15755.1875      -4876.83643    
   1.46300006       15750.3057      -4887.85205    
   1.46400011       15745.4131      -4898.84424    
   1.46500003       15740.5088      -4909.81299    
   1.46600008       15735.5938      -4920.75879    
   1.46700013       15730.6680      -4931.68066    
   1.46800005       15725.7314      -4942.57959    
   1.46900010       15720.7832      -4953.45508    
   1.47000003       15715.8242      -4964.30713    
   1.47100008       15710.8545      -4975.13574    
   1.47200012       15705.8730      -4985.94141    
   1.47300005       15700.8818      -4996.72363    
   1.47400010       15695.8799      -5007.48242    
   1.47500002       15690.8672      -5018.21777    
   1.47600007       15685.8438      -5028.93018    
   1.47700012       15680.8096      -5039.61914    
   1.47800004       15675.7646      -5050.28516    
   1.47900009       15670.7090      -5060.92773    
   1.48000002       15665.6436      -5071.54688    
   1.48100007       15660.5664      -5082.14307    
   1.48200011       15655.4785      -5092.71582    
   1.48300004       15650.3809      -5103.26514    
   1.48400009       15645.2725      -5113.79199    
   1.48500001       15640.1533      -5124.29541    
   1.48600006       15635.0244      -5134.77588    
   1.48700011       15629.8848      -5145.23291    
   1.48800004       15624.7334      -5155.66699    
   1.48900008       15619.5732      -5166.07764    
   1.49000013       15614.4023      -5176.46484    
   1.49100006       15609.2197      -5186.82959    
   1.49200010       15604.0283      -5197.17090    
   1.49300003       15598.8252      -5207.48926    
   1.49400008       15593.6133      -5217.78418    
   1.49500012       15588.3896      -5228.05664    
   1.49600005       15583.1572      -5238.30566    
   1.49700010       15577.9131      -5248.53174    
   1.49800003       15572.6602      -5258.73486    
   1.49900007       15567.3965      -5268.91504    
   1.50000012       15562.1230      -5279.07227    
   1.50100005       15556.8379      -5289.20605    
   1.50200009       15551.5439      -5299.31738    
   1.50300002       15546.2393      -5309.40527    
   1.50400007       15540.9248      -5319.47021    
   1.50500011       15535.6006      -5329.51270    
   1.50600004       15530.2656      -5339.53174    
   1.50700009       15524.9209      -5349.52783    
   1.50800002       15519.5674      -5359.50146    
   1.50900006       15514.2021      -5369.45166    
   1.51000011       15508.8281      -5379.37939    
   1.51100004       15503.4443      -5389.28418    
   1.51200008       15498.0498      -5399.16553    
   1.51300013       15492.6455      -5409.02441    
   1.51400006       15487.2324      -5418.86035    
   1.51500010       15481.8096      -5428.67383    
   1.51600003       15476.3750      -5438.46436    
   1.51700008       15470.9316      -5448.23193    
   1.51800013       15465.4785      -5457.97656    
   1.51900005       15460.0166      -5467.69873    
   1.52000010       15454.5449      -5477.39795    
   1.52100003       15449.0615      -5487.07422    
   1.52200007       15443.5693      -5496.72754    
   1.52300012       15438.0674      -5506.35889    
   1.52400005       15432.5566      -5515.96729    
   1.52500010       15427.0361      -5525.55273    
   1.52600002       15421.5059      -5535.11523    
   1.52700007       15415.9668      -5544.65576    
   1.52800012       15410.4180      -5554.17285    
   1.52900004       15404.8594      -5563.66748    
   1.53000009       15399.2910      -5573.14014    
   1.53100002       15393.7139      -5582.58936    
   1.53200006       15388.1279      -5592.01611    
   1.53300011       15382.5312      -5601.42041    
   1.53400004       15376.9258      -5610.80225    
   1.53500009       15371.3105      -5620.16113    
   1.53600001       15365.6865      -5629.49756    
   1.53700006       15360.0527      -5638.81201    
   1.53800011       15354.4092      -5648.10303    
   1.53900003       15348.7568      -5657.37207    
   1.54000008       15343.0947      -5666.61865    
   1.54100013       15337.4229      -5675.84277    
   1.54200006       15331.7422      -5685.04395    
   1.54300010       15326.0527      -5694.22266    
   1.54400003       15320.3545      -5703.37891    
   1.54500008       15314.6465      -5712.51318    
   1.54600012       15308.9297      -5721.62451    
   1.54700005       15303.2031      -5730.71387    
   1.54800010       15297.4678      -5739.78027    
   1.54900002       15291.7246      -5748.82471    
   1.55000007       15285.9707      -5757.84668    
   1.55100012       15280.2080      -5766.84619    
   1.55200005       15274.4375      -5775.82324    
   1.55300009       15268.6572      -5784.77832    
   1.55400002       15262.8672      -5793.71094    
   1.55500007       15257.0703      -5802.62109    
   1.55600011       15251.2627      -5811.50879    
   1.55700004       15245.4463      -5820.37451    
   1.55800009       15239.6221      -5829.21777    
   1.55900002       15233.7891      -5838.03857    
   1.56000006       15227.9453      -5846.83740    
   1.56100011       15222.0947      -5855.61426    
   1.56200004       15216.2344      -5864.36865    
   1.56300008       15210.3662      -5873.10059    
   1.56400013       15204.4883      -5881.81055    
   1.56500006       15198.6025      -5890.49854    
   1.56600010       15192.7080      -5899.16406    
   1.56700003       15186.8047      -5907.80762    
   1.56800008       15180.8926      -5916.42871    
   1.56900012       15174.9727      -5925.02783    
   1.57000005       15169.0430      -5933.60498    
   1.57100010       15163.1055      -5942.16016    
   1.57200003       15157.1582      -5950.69287    
   1.57300007       15151.2031      -5959.20410    
   1.57400012       15145.2402      -5967.69287    
   1.57500005       15139.2686      -5976.15967    
   1.57600009       15133.2891      -5984.60498    
   1.57700002       15127.2988      -5993.02783    
   1.57800007       15121.3018      -6001.42871    
   1.57900012       15115.2969      -6009.80713    
   1.58000004       15109.2822      -6018.16406    
   1.58100009       15103.2598      -6026.49902    
   1.58200002       15097.2295      -6034.81152    
   1.58300006       15091.1914      -6043.10254    
   1.58400011       15085.1436      -6051.37158    
   1.58500004       15079.0879      -6059.61865    
   1.58600008       15073.0244      -6067.84424    
   1.58700013       15066.9531      -6076.04785    
   1.58800006       15060.8730      -6084.22949    
   1.58900011       15054.7842      -6092.38916    
   1.59000003       15048.6875      -6100.52734    
   1.59100008       15042.5840      -6108.64307    
   1.59200013       15036.4717      -6116.73779    
   1.59300005       15030.3516      -6124.81006    
   1.59400010       15024.2217      -6132.86084    
   1.59500003       15018.0850      -6140.89014    
   1.59600008       15011.9395      -6148.89746    
   1.59700012       15005.7861      -6156.88330    
   1.59800005       14999.6260      -6164.84717    
   1.59900010       14993.4570      -6172.78906    
   1.60000002       14987.2803      -6180.70996    
   1.60100007       14981.0957      -6188.60889    
   1.60200012       14974.9033      -6196.48633    
   1.60300004       14968.7031      -6204.34180    
   1.60400009       14962.4951      -6212.17578    
   1.60500002       14956.2793      -6219.98828    
   1.60600007       14950.0557      -6227.77930    
   1.60700011       14943.8232      -6235.54883    
   1.60800004       14937.5840      -6243.29639    
   1.60900009       14931.3369      -6251.02295    
   1.61000013       14925.0811      -6258.72754    
   1.61100006       14918.8184      -6266.41113    
   1.61200011       14912.5469      -6274.07275    
   1.61300004       14906.2695      -6281.71338    
   1.61400008       14899.9844      -6289.33252    
   1.61500013       14893.6914      -6296.93018    
   1.61600006       14887.3906      -6304.50586    
   1.61700010       14881.0820      -6312.06104    
   1.61800003       14874.7666      -6319.59424    
   1.61900008       14868.4434      -6327.10596    
   1.62000012       14862.1133      -6334.59668    
   1.62100005       14855.7744      -6342.06592    
   1.62200010       14849.4277      -6349.51416    
   1.62300003       14843.0752      -6356.94043    
   1.62400007       14836.7139      -6364.34570    
   1.62500012       14830.3457      -6371.72998    
   1.62600005       14823.9707      -6379.09277    
   1.62700009       14817.5879      -6386.43457    
   1.62800002       14811.1973      -6393.75488    
   1.62900007       14804.8008      -6401.05420    
   1.63000011       14798.3955      -6408.33203    
   1.63100004       14791.9834      -6415.58887    
   1.63200009       14785.5645      -6422.82471    
   1.63300014       14779.1377      -6430.03955    
   1.63400006       14772.7041      -6437.23291    
   1.63500011       14766.2637      -6444.40527    
   1.63600004       14759.8164      -6451.55664    
   1.63700008       14753.3613      -6458.68652    
   1.63800013       14746.8984      -6465.79590    
   1.63900006       14740.4287      -6472.88379    
   1.64000010       14733.9512      -6479.95117    
   1.64100003       14727.4678      -6486.99707    
   1.64200008       14720.9766      -6494.02246    
   1.64300013       14714.4795      -6501.02637    
   1.64400005       14707.9756      -6508.00977    
   1.64500010       14701.4639      -6514.97168    
   1.64600003       14694.9453      -6521.91309    
   1.64700007       14688.4199      -6528.83350    
   1.64800012       14681.8877      -6535.73291    
   1.64900005       14675.3496      -6542.61182    
   1.65000010       14668.8027      -6549.46973    
   1.65100002       14662.2500      -6556.30664    
   1.65200007       14655.6914      -6563.12256    
   1.65300012       14649.1240      -6569.91797    
   1.65400004       14642.5518      -6576.69238    
   1.65500009       14635.9717      -6583.44678    
   1.65600014       14629.3848      -6590.17969    
   1.65700006       14622.7910      -6596.89209    
   1.65800011       14616.1914      -6603.58398    
   1.65900004       14609.5850      -6610.25439    
   1.66000009       14602.9707      -6616.90479    
   1.66100013       14596.3506      -6623.53467    
   1.66200006       14589.7246      -6630.14404    
   1.66300011       14583.0918      -6636.73193    
   1.66400003       14576.4502      -6643.29932    
   1.66500008       14569.8037      -6649.84668    
   1.66600013       14563.1504      -6656.37305    
   1.66700006       14556.4902      -6662.87939    
   1.66800010       14549.8242      -6669.36523    
   1.66900003       14543.1523      -6675.83057    
   1.67000008       14536.4736      -6682.27490    
   1.67100012       14529.7891      -6688.69824    
   1.67200005       14523.0967      -6695.10156    
   1.67300010       14516.3975      -6701.48438    
   1.67400002       14509.6924      -6707.84668    
   1.67500007       14502.9805      -6714.18896    
   1.67600012       14496.2627      -6720.51123    
   1.67700005       14489.5391      -6726.81299    
   1.67800009       14482.8086      -6733.09424    
   1.67900014       14476.0713      -6739.35498    
   1.68000007       14469.3281      -6745.59521    
   1.68100011       14462.5791      -6751.81543    
   1.68200004       14455.8232      -6758.01465    
   1.68300009       14449.0615      -6764.19434    
   1.68400013       14442.2949      -6770.35400    
   1.68500006       14435.5225      -6776.49268    
   1.68600011       14428.7432      -6782.61182    
   1.68700004       14421.9580      -6788.71094    
   1.68800008       14415.1660      -6794.78906    
   1.68900013       14408.3682      -6800.84766    
   1.69000006       14401.5635      -6806.88574    
   1.69100010       14394.7529      -6812.90381    
   1.69200003       14387.9375      -6818.90186    
   1.69300008       14381.1152      -6824.87939    
   1.69400012       14374.2881      -6830.83740    
   1.69500005       14367.4531      -6836.77490    
   1.69600010       14360.6143      -6842.69238    
   1.69700003       14353.7695      -6848.58984    
   1.69800007       14346.9180      -6854.46777    
   1.69900012       14340.0596      -6860.32568    
   1.70000005       14333.1973      -6866.16357    
   1.70100009       14326.3281      -6871.98145    
   1.70200002       14319.4531      -6877.77930    
   1.70300007       14312.5732      -6883.55713    
   1.70400012       14305.6875      -6889.31543    
   1.70500004       14298.7949      -6895.05420    
   1.70600009       14291.8975      -6900.77197    
   1.70700014       14284.9941      -6906.47021    
   1.70800006       14278.0840      -6912.14893    
   1.70900011       14271.1699      -6917.80811    
   1.71000004       14264.2490      -6923.44727    
   1.71100008       14257.3232      -6929.06738    
   1.71200013       14250.3916      -6934.66699    
   1.71300006       14243.4531      -6940.24756    
   1.71400011       14236.5107      -6945.80762    
   1.71500003       14229.5615      -6951.34766    
   1.71600008       14222.6074      -6956.86816    
   1.71700013       14215.6475      -6962.37012    
   1.71800005       14208.6826      -6967.85205    
   1.71900010       14201.7119      -6973.31445    
   1.72000003       14194.7354      -6978.75732    
   1.72100008       14187.7539      -6984.18018    
   1.72200012       14180.7666      -6989.58350    
   1.72300005       14173.7754      -6994.96729    
   1.72400010       14166.7773      -7000.33154    
   1.72500002       14159.7744      -7005.67627    
   1.72600007       14152.7656      -7011.00195    
   1.72700012       14145.7520      -7016.30762    
   1.72800004       14138.7334      -7021.59375    
   1.72900009       14131.7090      -7026.86133    
   1.73000014       14124.6797      -7032.10889    
   1.73100007       14117.6455      -7037.33740    
   1.73200011       14110.6055      -7042.54688    
   1.73300004       14103.5605      -7047.73633    
   1.73400009       14096.5107      -7052.90674    
   1.73500013       14089.4541      -7058.05762    
   1.73600006       14082.3936      -7063.18945    
   1.73700011       14075.3281      -7068.30176    
   1.73800004       14068.2578      -7073.39551    
   1.73900008       14061.1816      -7078.46924    
   1.74000013       14054.1006      -7083.52393    
   1.74100006       14047.0137      -7088.56006    
   1.74200010       14039.9238      -7093.57617    
   1.74300003       14032.8281      -7098.57373    
   1.74400008       14025.7266      -7103.55225    
   1.74500012       14018.6201      -7108.51123    
   1.74600005       14011.5088      -7113.45117    
   1.74700010       14004.3926      -7118.37256    
   1.74800003       13997.2725      -7123.27490    
   1.74900007       13990.1465      -7128.15723    
   1.75000012       13983.0166      -7133.02100    
   1.75100005       13975.8818      -7137.86621    
   1.75200009       13968.7412      -7142.69189    
   1.75300014       13961.5957      -7147.49902    
   1.75400007       13954.4453      -7152.28760    
   1.75500011       13947.2900      -7157.05664    
   1.75600004       13940.1299      -7161.80713    
   1.75700009       13932.9648      -7166.53857    
   1.75800014       13925.7959      -7171.25146    
   1.75900006       13918.6221      -7175.94531    
   1.76000011       13911.4424      -7180.62012    
   1.76100004       13904.2598      -7185.27637    
   1.76200008       13897.0713      -7189.91357    
   1.76300013       13889.8779      -7194.53271    
   1.76400006       13882.6816      -7199.13281    
   1.76500010       13875.4814      -7203.71436    
   1.76600003       13868.2754      -7208.27686    
   1.76700008       13861.0654      -7212.82031    
   1.76800013       13853.8506      -7217.34570    
   1.76900005       13846.6309      -7221.85254    
   1.77000010       13839.4062      -7226.34033    
   1.77100003       13832.1768      -7230.80957    
   1.77200007       13824.9443      -7235.26074    
   1.77300012       13817.7080      -7239.69336    
   1.77400005       13810.4658      -7244.10693    
   1.77500010       13803.2197      -7248.50293    
   1.77600014       13795.9688      -7252.87939    
   1.77700007       13788.7139      -7257.23828    
   1.77800012       13781.4551      -7261.57812    
   1.77900004       13774.1914      -7265.89990    
   1.78000009       13766.9229      -7270.20264    
   1.78100014       13759.6514      -7274.48779    
   1.78200006       13752.3750      -7278.75439    
   1.78300011       13745.0938      -7283.00195    
   1.78400004       13737.8076      -7287.23193    
   1.78500009       13730.5186      -7291.44336    
   1.78600013       13723.2256      -7295.63672    
   1.78700006       13715.9268      -7299.81152    
   1.78800011       13708.6250      -7303.96826    
   1.78900003       13701.3193      -7308.10645    
   1.79000008       13694.0098      -7312.22705    
   1.79100013       13686.6953      -7316.32910    
   1.79200006       13679.3770      -7320.41357    
   1.79300010       13672.0547      -7324.47949    
   1.79400003       13664.7285      -7328.52783    
   1.79500008       13657.3984      -7332.55762    
   1.79600012       13650.0635      -7336.56934    
   1.79700005       13642.7246      -7340.56299    
   1.79800010       13635.3818      -7344.53857    
   1.79900014       13628.0352      -7348.49609    
   1.80000007       13620.6846      -7352.43555    
   1.80100012       13613.3301      -7356.35693    
   1.80200005       13605.9717      -7360.26025    
   1.80300009       13598.6084      -7364.14551    
   1.80400014       13591.2422      -7368.01318    
   1.80500007       13583.8730      -7371.86328    
   1.80600011       13576.5000      -7375.69482    
   1.80700004       13569.1221      -7379.50928    
   1.80800009       13561.7412      -7383.30566    
   1.80900013       13554.3555      -7387.08350    
   1.81000006       13546.9658      -7390.84473    
   1.81100011       13539.5732      -7394.58740    
   1.81200004       13532.1777      -7398.31299    
   1.81300008       13524.7773      -7402.02051    
   1.81400013       13517.3730      -7405.70947    
   1.81500006       13509.9658      -7409.38184    
   1.81600010       13502.5547      -7413.03613    
   1.81700003       13495.1396      -7416.67285    
   1.81800008       13487.7217      -7420.29199    
   1.81900012       13480.2988      -7423.89355    
   1.82000005       13472.8730      -7427.47705    
   1.82100010       13465.4443      -7431.04395    
   1.82200015       13458.0127      -7434.59229    
   1.82300007       13450.5752      -7438.12354    
   1.82400012       13443.1357      -7441.63721    
   1.82500005       13435.6924      -7445.13379    
   1.82600009       13428.2461      -7448.61328    
   1.82700014       13420.7949      -7452.07471    
   1.82800007       13413.3408      -7455.51855    
   1.82900012       13405.8838      -7458.94482    
   1.83000004       13398.4238      -7462.35400    
   1.83100009       13390.9600      -7465.74609    
   1.83200014       13383.4932      -7469.12061    
   1.83300006       13376.0215      -7472.47803    
   1.83400011       13368.5469      -7475.81836    
   1.83500004       13361.0693      -7479.14111    
   1.83600008       13353.5889      -7482.44629    
   1.83700013       13346.1045      -7485.73438    
   1.83800006       13338.6172      -7489.00537    
   1.83900011       13331.1270      -7492.25977    
   1.84000003       13323.6338      -7495.49658    
   1.84100008       13316.1367      -7498.71631    
   1.84200013       13308.6367      -7501.91846    
   1.84300005       13301.1348      -7505.10449    
   1.84400010       13293.6279      -7508.27295    
   1.84500003       13286.1191      -7511.42432    
   1.84600008       13278.6064      -7514.55908    
   1.84700012       13271.0908      -7517.67627    
   1.84800005       13263.5723      -7520.77637    
   1.84900010       13256.0508      -7523.86035    
   1.85000014       13248.5264      -7526.92627    
   1.85100007       13240.9980      -7529.97607    
   1.85200012       13233.4668      -7533.00879    
   1.85300004       13225.9326      -7536.02441    
   1.85400009       13218.3945      -7539.02344    
   1.85500014       13210.8545      -7542.00537    
   1.85600007       13203.3105      -7544.97119    
   1.85700011       13195.7637      -7547.91943    
   1.85800004       13188.2148      -7550.85107    
   1.85900009       13180.6621      -7553.76611    
   1.86000013       13173.1064      -7556.66406    
   1.86100006       13165.5488      -7559.54590    
   1.86200011       13157.9873      -7562.41064    
   1.86300004       13150.4238      -7565.25928    
   1.86400008       13142.8574      -7568.09082    
   1.86500013       13135.2881      -7570.90625    
   1.86600006       13127.7158      -7573.70410    
   1.86700010       13120.1406      -7576.48584    
   1.86800003       13112.5625      -7579.25098    
   1.86900008       13104.9824      -7581.99951    
   1.87000012       13097.3984      -7584.73145    
   1.87100005       13089.8125      -7587.44678    
   1.87200010       13082.2236      -7590.14551    
   1.87300014       13074.6318      -7592.82812    
   1.87400007       13067.0381      -7595.49463    
   1.87500012       13059.4414      -7598.14502    
   1.87600005       13051.8418      -7600.77881    
   1.87700009       13044.2402      -7603.39600    
   1.87800014       13036.6357      -7605.99658    
   1.87900007       13029.0283      -7608.58105    
   1.88000011       13021.4180      -7611.14941    
   1.88100004       13013.8057      -7613.70166    
   1.88200009       13006.1914      -7616.23730    
   1.88300014       12998.5732      -7618.75732    
   1.88400006       12990.9531      -7621.26025    
   1.88500011       12983.3311      -7623.74756    
   1.88600004       12975.7061      -7626.21826    
   1.88700008       12968.0791      -7628.67334    
   1.88800013       12960.4492      -7631.11182    
   1.88900006       12952.8164      -7633.53467    
   1.89000010       12945.1816      -7635.94092    
   1.89100003       12937.5439      -7638.33154    
   1.89200008       12929.9043      -7640.70654    
   1.89300013       12922.2627      -7643.06494    
   1.89400005       12914.6182      -7645.40723    
   1.89500010       12906.9707      -7647.73438    
   1.89600015       12899.3223      -7650.04443    
   1.89700007       12891.6699      -7652.33936    
   1.89800012       12884.0166      -7654.61816    
   1.89900005       12876.3613      -7656.88135    
   1.90000010       12868.7041      -7659.12793    
   1.90100014       12861.0439      -7661.35889    
   1.90200007       12853.3809      -7663.57373    
   1.90300012       12845.7158      -7665.77344    
   1.90400004       12838.0498      -7667.95703    
   1.90500009       12830.3809      -7670.12500    
   1.90600014       12822.7090      -7672.27734    
   1.90700006       12815.0361      -7674.41357    
   1.90800011       12807.3604      -7676.53467    
   1.90900004       12799.6826      -7678.63965    
   1.91000009       12792.0029      -7680.72900    
   1.91100013       12784.3213      -7682.80322    
   1.91200006       12776.6377      -7684.86182    
   1.91300011       12768.9521      -7686.90479    
   1.91400003       12761.2637      -7688.93164    
   1.91500008       12753.5742      -7690.94336    
   1.91600013       12745.8818      -7692.93945    
   1.91700006       12738.1885      -7694.92041    
   1.91800010       12730.4922      -7696.88525    
   1.91900015       12722.7949      -7698.83545    
   1.92000008       12715.0947      -7700.77002    
   1.92100012       12707.3926      -7702.68896    
   1.92200005       12699.6895      -7704.59277    
   1.92300010       12691.9834      -7706.48096    
   1.92400014       12684.2764      -7708.35352    
   1.92500007       12676.5674      -7710.21191    
   1.92600012       12668.8555      -7712.05420    
   1.92700005       12661.1426      -7713.88135    
   1.92800009       12653.4287      -7715.69287    
   1.92900014       12645.7119      -7717.48975    
   1.93000007       12637.9932      -7719.27148    
   1.93100011       12630.2734      -7721.03760    
   1.93200004       12622.5518      -7722.78857    
   1.93300009       12614.8281      -7724.52441    
   1.93400013       12607.1025      -7726.24561    
   1.93500006       12599.3750      -7727.95117    
   1.93600011       12591.6465      -7729.64160    
   1.93700004       12583.9160      -7731.31689    
   1.93800008       12576.1846      -7732.97754    
   1.93900013       12568.4502      -7734.62354    
   1.94000006       12560.7148      -7736.25391    
   1.94100010       12552.9775      -7737.86963    
   1.94200015       12545.2383      -7739.47070    
   1.94300008       12537.4980      -7741.05615    
   1.94400012       12529.7559      -7742.62744    
   1.94500005       12522.0117      -7744.18311    
   1.94600010       12514.2666      -7745.72412    
   1.94700015       12506.5205      -7747.25049    
   1.94800007       12498.7715      -7748.76221    
   1.94900012       12491.0215      -7750.25928    
   1.95000005       12483.2715      -7751.74121    
   1.95100009       12475.5186      -7753.20850    
   1.95200014       12467.7656      -7754.66113    
   1.95300007       12460.0098      -7756.09912    
   1.95400012       12452.2529      -7757.52197    
   1.95500004       12444.4941      -7758.93115    
   1.95600009       12436.7354      -7760.32471    
   1.95700014       12428.9736      -7761.70459    
   1.95800006       12421.2119      -7763.06934    
   1.95900011       12413.4473      -7764.41992    
   1.96000004       12405.6826      -7765.75586    
   1.96100008       12397.9160      -7767.07715    
   1.96200013       12390.1484      -7768.38379    
   1.96300006       12382.3799      -7769.67627    
   1.96400011       12374.6094      -7770.95410    
   1.96500015       12366.8369      -7772.21729    
   1.96600008       12359.0645      -7773.46631    
   1.96700013       12351.2900      -7774.70166    
   1.96800005       12343.5146      -7775.92139    
   1.96900010       12335.7383      -7777.12744    
   1.97000015       12327.9609      -7778.31934    
   1.97100008       12320.1816      -7779.49658    
   1.97200012       12312.4023      -7780.66016    
   1.97300005       12304.6211      -7781.80859    
   1.97400010       12296.8389      -7782.94287    
   1.97500014       12289.0547      -7784.06299    
   1.97600007       12281.2705      -7785.16895    
   1.97700012       12273.4844      -7786.26074    
   1.97800004       12265.6973      -7787.33887    
   1.97900009       12257.9102      -7788.40234    
   1.98000014       12250.1201      -7789.45166    
   1.98100007       12242.3311      -7790.48779    
   1.98200011       12234.5400      -7791.50928    
   1.98300004       12226.7471      -7792.51709    
   1.98400009       12218.9541      -7793.51074    
   1.98500013       12211.1602      -7794.48975    
   1.98600006       12203.3652      -7795.45605    
   1.98700011       12195.5693      -7796.40771    
   1.98800004       12187.7725      -7797.34521    
   1.98900008       12179.9746      -7798.26904    
   1.99000013       12172.1758      -7799.17920    
   1.99100006       12164.3760      -7800.07520    
   1.99200010       12156.5762      -7800.95752    
   1.99300015       12148.7744      -7801.82617    
   1.99400008       12140.9727      -7802.68115    
   1.99500012       12133.1689      -7803.52197    
   1.99600005       12125.3643      -7804.34961    
   1.99700010       12117.5596      -7805.16309    
   1.99800014       12109.7539      -7805.96289    
   1.99900007       12101.9473      -7806.74902    
   2.00000000       12094.1396      -7807.52148    
   2.00100017       12086.3320      -7808.28027    
   2.00200009       12078.5234      -7809.02539    
   2.00300002       12070.7139      -7809.75684    
   2.00400019       12062.9033      -7810.47510    
   2.00500011       12055.0928      -7811.17969    
   2.00600004       12047.2812      -7811.87158    
   2.00700021       12039.4688      -7812.54883    
   2.00800014       12031.6562      -7813.21240    
   2.00900006       12023.8428      -7813.86328    
   2.00999999       12016.0283      -7814.50049    
   2.01100016       12008.2129      -7815.12402    
   2.01200008       12000.3975      -7815.73438    
   2.01300001       11992.5820      -7816.33154    
   2.01400018       11984.7656      -7816.91504    
   2.01500010       11976.9473      -7817.48535    
   2.01600003       11969.1299      -7818.04248    
   2.01700020       11961.3115      -7818.58594    
   2.01800013       11953.4922      -7819.11719    
   2.01900005       11945.6738      -7819.63477    
   2.01999998       11937.8535      -7820.13867    
   2.02100015       11930.0332      -7820.62988    
   2.02200007       11922.2119      -7821.10791    
   2.02300000       11914.3906      -7821.57275    
   2.02400017       11906.5693      -7822.02441    
   2.02500010       11898.7471      -7822.46338    
   2.02600002       11890.9238      -7822.88916    
   2.02700019       11883.1006      -7823.30127    
   2.02800012       11875.2773      -7823.70068    
   2.02900004       11867.4531      -7824.08691    
   2.03000021       11859.6289      -7824.46045    
   2.03100014       11851.8037      -7824.82080    
   2.03200006       11843.9795      -7825.16846    
   2.03299999       11836.1543      -7825.50293    
   2.03400016       11828.3281      -7825.82471    
   2.03500009       11820.5020      -7826.13379    
   2.03600001       11812.6758      -7826.42969    
   2.03700018       11804.8496      -7826.71289    
   2.03800011       11797.0225      -7826.98340    
   2.03900003       11789.1963      -7827.24072    
   2.04000020       11781.3691      -7827.48535    
   2.04100013       11773.5410      -7827.71729    
   2.04200006       11765.7129      -7827.93652    
   2.04299998       11757.8857      -7828.14355    
   2.04400015       11750.0566      -7828.33789    
   2.04500008       11742.2285      -7828.51953    
   2.04600000       11734.3994      -7828.68799    
   2.04700017       11726.5713      -7828.84375    
   2.04800010       11718.7432      -7828.98682    
   2.04900002       11710.9131      -7829.11768    
   2.05000019       11703.0840      -7829.23633    
   2.05100012       11695.2549      -7829.34229    
   2.05200005       11687.4258      -7829.43604    
   2.05300021       11679.5957      -7829.51709    
   2.05400014       11671.7666      -7829.58545    
   2.05500007       11663.9375      -7829.64160    
   2.05599999       11656.1084      -7829.68457    
   2.05700016       11648.2783      -7829.71631    
   2.05800009       11640.4492      -7829.73486    
   2.05900002       11632.6201      -7829.74121    
   2.06000018       11624.7910      -7829.73584    
   2.06100011       11616.9609      -7829.71777    
   2.06200004       11609.1318      -7829.68701    
   2.06300020       11601.3027      -7829.64453    
   2.06400013       11593.4736      -7829.58936    
   2.06500006       11585.6436      -7829.52246    
   2.06599998       11577.8145      -7829.44336    
   2.06700015       11569.9854      -7829.35205    
   2.06800008       11562.1553      -7829.24805    
   2.06900001       11554.3262      -7829.13232    
   2.07000017       11546.4971      -7829.00488    
   2.07100010       11538.6689      -7828.86475    
   2.07200003       11530.8398      -7828.71338    
   2.07300019       11523.0117      -7828.54932    
   2.07400012       11515.1826      -7828.37354    
   2.07500005       11507.3545      -7828.18555    
   2.07600021       11499.5264      -7827.98535    
   2.07700014       11491.6982      -7827.77393    
   2.07800007       11483.8711      -7827.55029    
   2.07900000       11476.0430      -7827.31445    
   2.08000016       11468.2158      -7827.06689    
   2.08100009       11460.3887      -7826.80713    
   2.08200002       11452.5625      -7826.53564    
   2.08300018       11444.7363      -7826.25244    
   2.08400011       11436.9102      -7825.95752    
   2.08500004       11429.0840      -7825.65088    
   2.08600020       11421.2588      -7825.33203    
   2.08700013       11413.4336      -7825.00195    
   2.08800006       11405.6084      -7824.65967    
   2.08899999       11397.7842      -7824.30664    
   2.09000015       11389.9600      -7823.94141    
   2.09100008       11382.1367      -7823.56445    
   2.09200001       11374.3135      -7823.17627    
   2.09300017       11366.4902      -7822.77637    
   2.09400010       11358.6680      -7822.36523    
   2.09500003       11350.8457      -7821.94189    
   2.09600019       11343.0244      -7821.50684    
   2.09700012       11335.2031      -7821.06104    
   2.09800005       11327.3818      -7820.60303    
   2.09900022       11319.5615      -7820.13428    
   2.10000014       11311.7412      -7819.65332    
   2.10100007       11303.9229      -7819.16211    
   2.10200000       11296.1035      -7818.65820    
   2.10300016       11288.2852      -7818.14404    
   2.10400009       11280.4678      -7817.61768    
   2.10500002       11272.6504      -7817.08057    
   2.10600019       11264.8330      -7816.53125    
   2.10700011       11257.0176      -7815.97119    
   2.10800004       11249.2012      -7815.40039    
   2.10900021       11241.3857      -7814.81738    
   2.11000013       11233.5713      -7814.22363    
   2.11100006       11225.7578      -7813.61865    
   2.11199999       11217.9443      -7813.00244    
   2.11300015       11210.1318      -7812.37500    
   2.11400008       11202.3193      -7811.73584    
   2.11500001       11194.5078      -7811.08643    
   2.11600018       11186.6982      -7810.42529    
   2.11700010       11178.8877      -7809.75391    
   2.11800003       11171.0781      -7809.07080    
   2.11900020       11163.2686      -7808.37695    
   2.12000012       11155.4609      -7807.67236    
   2.12100005       11147.6533      -7806.95654    
   2.12200022       11139.8467      -7806.22949    
   2.12300014       11132.0410      -7805.49170    
   2.12400007       11124.2363      -7804.74268    
   2.12500000       11116.4316      -7803.98291    
   2.12600017       11108.6289      -7803.21289    
   2.12700009       11100.8262      -7802.43164    
   2.12800002       11093.0244      -7801.63965    
   2.12900019       11085.2227      -7800.83643    
   2.13000011       11077.4229      -7800.02295    
   2.13100004       11069.6230      -7799.19873    
   2.13200021       11061.8242      -7798.36328    
   2.13300014       11054.0264      -7797.51709    
   2.13400006       11046.2295      -7796.66016    
   2.13499999       11038.4336      -7795.79248    
   2.13600016       11030.6377      -7794.91455    
   2.13700008       11022.8428      -7794.02588    
   2.13800001       11015.0488      -7793.12646    
   2.13900018       11007.2568      -7792.21680    
   2.14000010       10999.4648      -7791.29639    
   2.14100003       10991.6748      -7790.36475    
   2.14200020       10983.8848      -7789.42334    
   2.14300013       10976.0947      -7788.47119    
   2.14400005       10968.3076      -7787.50879    
   2.14500022       10960.5205      -7786.53564    
   2.14600015       10952.7344      -7785.55225    
   2.14700007       10944.9492      -7784.55811    
   2.14800000       10937.1650      -7783.55322    
   2.14900017       10929.3828      -7782.53857    
   2.15000010       10921.6006      -7781.51367    
   2.15100002       10913.8193      -7780.47852    
   2.15200019       10906.0391      -7779.43311    
   2.15300012       10898.2607      -7778.37646    
   2.15400004       10890.4824      -7777.31006    
   2.15500021       10882.7051      -7776.23291    
   2.15600014       10874.9297      -7775.14600    
   2.15700006       10867.1553      -7774.04834    
   2.15799999       10859.3818      -7772.94092    
   2.15900016       10851.6094      -7771.82324    
   2.16000009       10843.8379      -7770.69531    
   2.16100001       10836.0674      -7769.55762    
   2.16200018       10828.2988      -7768.41016    
   2.16300011       10820.5312      -7767.25195    
   2.16400003       10812.7646      -7766.08398    
   2.16500020       10804.9990      -7764.90527    
   2.16600013       10797.2344      -7763.71777    
   2.16700006       10789.4717      -7762.51953    
   2.16800022       10781.7100      -7761.31152    
   2.16900015       10773.9492      -7760.09375    
   2.17000008       10766.1895      -7758.86572    
   2.17100000       10758.4307      -7757.62744    
   2.17200017       10750.6738      -7756.37988    
   2.17300010       10742.9189      -7755.12207    
   2.17400002       10735.1641      -7753.85498    
   2.17500019       10727.4111      -7752.57715    
   2.17600012       10719.6582      -7751.29053    
   2.17700005       10711.9082      -7749.99316    
   2.17800021       10704.1592      -7748.68652    
   2.17900014       10696.4102      -7747.37012    
   2.18000007       10688.6641      -7746.04346    
   2.18099999       10680.9189      -7744.70801    
   2.18200016       10673.1738      -7743.36182    
   2.18300009       10665.4316      -7742.00684    
   2.18400002       10657.6904      -7740.64160    
   2.18500018       10649.9502      -7739.26758    
   2.18600011       10642.2119      -7737.88330    
   2.18700004       10634.4746      -7736.48926    
   2.18800020       10626.7383      -7735.08594    
   2.18900013       10619.0039      -7733.67285    
   2.19000006       10611.2715      -7732.25098    
   2.19100022       10603.5400      -7730.81934    
   2.19200015       10595.8096      -7729.37793    
   2.19300008       10588.0811      -7727.92725    
   2.19400001       10580.3535      -7726.46729    
   2.19500017       10572.6279      -7724.99805    
   2.19600010       10564.9043      -7723.51904    
   2.19700003       10557.1816      -7722.03076    
   2.19800019       10549.4600      -7720.53320    
   2.19900012       10541.7393      -7719.02588    
   2.20000005       10534.0215      -7717.50928    
   2.20100021       10526.3047      -7715.98340    
   2.20200014       10518.5889      -7714.44873    
   2.20300007       10510.8750      -7712.90430    
   2.20400000       10503.1631      -7711.35059    
   2.20500016       10495.4531      -7709.78760    
   2.20600009       10487.7441      -7708.21582    
   2.20700002       10480.0361      -7706.63477    
   2.20800018       10472.3301      -7705.04443    
   2.20900011       10464.6260      -7703.44531    
   2.21000004       10456.9238      -7701.83643    
   2.21100020       10449.2227      -7700.21924    
   2.21200013       10441.5225      -7698.59229    
   2.21300006       10433.8252      -7696.95703    
   2.21399999       10426.1279      -7695.31201    
   2.21500015       10418.4336      -7693.65869    
   2.21600008       10410.7412      -7691.99561    
   2.21700001       10403.0498      -7690.32422    
   2.21800017       10395.3604      -7688.64307    
   2.21900010       10387.6729      -7686.95361    
   2.22000003       10379.9873      -7685.25488    
   2.22100019       10372.3027      -7683.54736    
   2.22200012       10364.6191      -7681.83105    
   2.22300005       10356.9385      -7680.10596    
   2.22400022       10349.2598      -7678.37207    
   2.22500014       10341.5820      -7676.62939    
   2.22600007       10333.9062      -7674.87793    
   2.22700000       10326.2314      -7673.11719    
   2.22800016       10318.5596      -7671.34814    
   2.22900009       10310.8887      -7669.57031    
   2.23000002       10303.2207      -7667.78418    
   2.23100019       10295.5537      -7665.98877    
   2.23200011       10287.8887      -7664.18506    
   2.23300004       10280.2256      -7662.37256    
   2.23400021       10272.5635      -7660.55176    
   2.23500013       10264.9043      -7658.72217    
   2.23600006       10257.2461      -7656.88379    
   2.23699999       10249.5898      -7655.03662    
   2.23800015       10241.9365      -7653.18115    
   2.23900008       10234.2842      -7651.31738    
   2.24000001       10226.6338      -7649.44531    
   2.24100018       10218.9854      -7647.56445    
   2.24200010       10211.3389      -7645.67480    
   2.24300003       10203.6943      -7643.77734    
   2.24400020       10196.0508      -7641.87158    
   2.24500012       10188.4102      -7639.95703    
   2.24600005       10180.7715      -7638.03418    
   2.24700022       10173.1338      -7636.10303    
   2.24800014       10165.4990      -7634.16309    
   2.24900007       10157.8652      -7632.21582    
   2.25000000       10150.2344      -7630.25928    
   2.25100017       10142.6045      -7628.29492    
   2.25200009       10134.9775      -7626.32227    
   2.25300002       10127.3525      -7624.34131    
   2.25400019       10119.7285      -7622.35205    
   2.25500011       10112.1074      -7620.35498    
   2.25600004       10104.4883      -7618.34863    
   2.25700021       10096.8711      -7616.33496    
   2.25800014       10089.2559      -7614.31348    
   2.25900006       10081.6426      -7612.28320    
   2.25999999       10074.0312      -7610.24512    
   2.26100016       10066.4219      -7608.19873    
   2.26200008       10058.8145      -7606.14502    
   2.26300001       10051.2090      -7604.08252    
   2.26400018       10043.6064      -7602.01221    
   2.26500010       10036.0049      -7599.93359    
   2.26600003       10028.4062      -7597.84766    
   2.26700020       10020.8096      -7595.75342    
   2.26800013       10013.2148      -7593.65186    
   2.26900005       10005.6221      -7591.54199    
   2.27000022       9998.03223      -7589.42432    
   2.27100015       9990.44336      -7587.29883    
   2.27200007       9982.85742      -7585.16553    
   2.27300000       9975.27344      -7583.02441    
   2.27400017       9967.69141      -7580.87549    
   2.27500010       9960.11133      -7578.71826    
   2.27600002       9952.53418      -7576.55371    
   2.27700019       9944.95898      -7574.38086    
   2.27800012       9937.38574      -7572.20020    
   2.27900004       9929.81445      -7570.01172    
   2.28000021       9922.24609      -7567.81641    
   2.28100014       9914.67871      -7565.61279    
   2.28200006       9907.11523      -7563.40186    
   2.28299999       9899.55176      -7561.18262    
   2.28400016       9891.99219      -7558.95654    
   2.28500009       9884.43359      -7556.72266    
   2.28600001       9876.87793      -7554.48047    
   2.28700018       9869.32520      -7552.23145    
   2.28800011       9861.77441      -7549.97461    
   2.28900003       9854.22559      -7547.70996    
   2.29000020       9846.67871      -7545.43848    
   2.29100013       9839.13379      -7543.15869    
   2.29200006       9831.59180      -7540.87207    
   2.29300022       9824.05176      -7538.57715    
   2.29400015       9816.51465      -7536.27539    
   2.29500008       9808.97949      -7533.96680    
   2.29600000       9801.44629      -7531.65039    
   2.29700017       9793.91602      -7529.32666    
   2.29800010       9786.38770      -7526.99512    
   2.29900002       9778.86230      -7524.65625    
   2.30000019       9771.33887      -7522.31055    
   2.30100012       9763.81836      -7519.95752    
   2.30200005       9756.29980      -7517.59717    
   2.30300021       9748.78320      -7515.22900    
   2.30400014       9741.26953      -7512.85449    
   2.30500007       9733.75781      -7510.47266    
   2.30599999       9726.24805      -7508.08252    
