6.024642468562235170e-38 -6.104239059366214368e-33
2.409856987424894068e-37 -6.104239059366214368e-33
5.422178221706011653e-37 6.024637513687229851e-38
9.639427949699576272e-37 2.409849059327350466e-37
1.506160617140558876e-36 5.422138085768173709e-37
2.168871288682404661e-36 9.639301100626841951e-37
2.952074809595495317e-36 1.506129648210348409e-36
3.855771179879830509e-36 2.168807071743237084e-36
4.879960399535410571e-36 2.951955840289159810e-36
6.024642468562235504e-36 3.855568224498402797e-36
7.289817386960304640e-36 4.879635306068007937e-36
8.675485154729618645e-36 6.024146977883044454e-36
1.018164577187017752e-35 7.289091944066211076e-36
1.180829923838198127e-35 8.674457720125554727e-36
1.355544555426502988e-35 1.018023063305722163e-35
1.542308471951932204e-35 1.180639582149995446e-35
1.741121673414486039e-35 1.355293723584679385e-35
1.951984159814164229e-35 1.541983763844759784e-35
2.174895931150966771e-35 1.740707860374307159e-35
2.409856987424894202e-35 1.951464051847057566e-35
2.656867328635945451e-35 2.174250258184444408e-35
2.915926954784121856e-35 2.409064280576428358e-35
3.187035865869422347e-35 2.655903801503461873e-35
3.470194061891847458e-35 2.914766384759438618e-35
3.765401542851397190e-35 3.185649475474975391e-35
4.072658308748071009e-35 3.468550400143250268e-35
4.391964359581869447e-35 3.763466366646348048e-35
4.723319695352792507e-35 4.070394464282253571e-35
5.066724316060840187e-35 4.389331663795916197e-35
5.422178221706011954e-35 4.720274817405041445e-35
5.789681412288307807e-35 5.063220658833660920e-35
6.169233887807728814e-35 5.418165803346086587e-35
6.560835648264273908e-35 5.785106747775937520e-35
6.964486693657944158e-35 6.164039870564944178e-35
7.380187023988738493e-35 6.554961431795876862e-35
7.807936639256656914e-35 6.957867573230528908e-35
8.247735539461699422e-35 7.372754318349009541e-35
8.699583724603867085e-35 7.799617572385389995e-35
9.163481194683159903e-35 8.238453122372055378e-35
9.639427949699576807e-35 8.689256637179346046e-35
1.012742398965311780e-34 9.152023667559012482e-35
1.062746931454378180e-34 9.626749646186789226e-35
1.113956392437157311e-34 1.011342988770862195e-34
1.166370781913648742e-34 1.061205958878783641e-34
1.219990099883852690e-34 1.112263382815014460e-34
1.274814346347768939e-34 1.164514756663374623e-34
1.330843521305397703e-34 1.217959564723892352e-34
1.388077624756738983e-34 1.272597279517967474e-34
1.446516656701792565e-34 1.328427361793336130e-34
1.506160617140558876e-34 1.385449260529632696e-34
1.567009506073037275e-34 1.443662412943883061e-34
1.629063323499228403e-34 1.503066244495497779e-34
1.692322069419131833e-34 1.563660168892789983e-34
1.756785743832747779e-34 1.625443588098257616e-34
1.822454346740076240e-34 1.688415892334446632e-34
1.889327878141117003e-34 1.752576460090017947e-34
1.957406338035870281e-34 1.817924658126258517e-34
2.026689726424336075e-34 1.884459841482675107e-34
2.097178043306513957e-34 1.952181353483976199e-34
2.168871288682404782e-34 2.021088525746181928e-34
2.241769462552007694e-34 2.091180678183235648e-34
2.315872564915323123e-34 2.162457119013990115e-34
2.391180595772351066e-34 2.234917144768631737e-34
2.467693555123091526e-34 2.308560040296095471e-34
2.545411442967544501e-34 2.383385078770620150e-34
2.624334259305709563e-34 2.459391521699346405e-34
2.704462004137587569e-34 2.536578618929329573e-34
2.785794677463177663e-34 2.614945608655109818e-34
2.868332279282480272e-34 2.694491717426108639e-34
2.952074809595495397e-34 2.775216160154432057e-34
3.037022268402222610e-34 2.857118140122297906e-34
3.123174655702662766e-34 2.940196848990248707e-34
3.210531971496815009e-34 3.024451466805060913e-34
3.299094215784679769e-34 3.109881162007616091e-34
3.388861388566257471e-34 3.196485091441261763e-34
3.479833489841546834e-34 3.284262400360286417e-34
3.572010519610549140e-34 3.373212222438021622e-34
3.665392477873263961e-34 3.463333679775592874e-34
3.759979364629690870e-34 3.554625882910717480e-34
3.855771179879830723e-34 3.647087930826114573e-34
3.952767923623682235e-34 3.740718910958653238e-34
4.050969595861247119e-34 3.835517899208512610e-34
4.150376196592523663e-34 3.931483959947809135e-34
4.250987725817512722e-34 4.028616146030373321e-34
4.352804183536215152e-34 4.126913498800696882e-34
4.455825569748629242e-34 4.226375048103559814e-34
4.560051884454755848e-34 4.326999812293648929e-34
4.665483127654594969e-34 4.428786798245141325e-34
4.772119299348146606e-34 4.531735001361683842e-34
4.879960399535410759e-34 4.635843405585956856e-34
4.989006428216386571e-34 4.741110983410102770e-34
5.099257385391075755e-34 4.847536695885599416e-34
5.210713271059477454e-34 4.955119492633609859e-34
5.323374085221590813e-34 5.063858311855332193e-34
5.437239827877417543e-34 5.173752080342650405e-34
5.552310499026955933e-34 5.284799713488378975e-34
5.668586098670206839e-34 5.397000115297166042e-34
5.786066626807170260e-34 5.510352178396364077e-34
5.904752083437847052e-34 5.624854784046920221e-34
6.024642468562235504e-34 5.740506802154202477e-34
6.145737782180336472e-34 5.857307091279760736e-34
6.268038024292149100e-34 5.975254498651543145e-34
6.391543194897675099e-34 6.094347860176567157e-34
6.516253293996913614e-34 6.214586000451244522e-34
6.642168321589864644e-34 6.335967732773626402e-34
6.769288277676527334e-34 6.458491859155148997e-34
6.897613162256903395e-34 6.582157170332217517e-34
7.027142975330991116e-34 6.706962445778067270e-34
7.157877716898791353e-34 6.832906453714918121e-34
7.289817386960304960e-34 6.959987951126293146e-34
7.422961985515530228e-34 7.088205683769172237e-34
7.557311512564468011e-34 7.217558386186290237e-34
7.692865968107118310e-34 7.348044781718702781e-34
7.829625352143481125e-34 7.479663582518234116e-34
7.967589664673556455e-34 7.612413489560679268e-34
8.106758905697344300e-34 7.746293192657914879e-34
8.247133075214842950e-34 7.881301370471370794e-34
8.388712173226055827e-34 8.017436690524792620e-34
8.531496199730981219e-34 8.154697809217460150e-34
8.675485154729619126e-34 8.293083371837733365e-34
8.820679038221967839e-34 8.432592012575941572e-34
8.967077850208030777e-34 8.573222354537741243e-34
9.114681590687806231e-34 8.714973009759104019e-34
9.263490259661292490e-34 8.857842579217762136e-34
9.413503857128492976e-34 9.001829652849010664e-34
9.564722383089404266e-34 9.146932809558410191e-34
9.717145837544029782e-34 9.293150617236444697e-34
9.870774220492366103e-34 9.440481632772402826e-34
1.002560753193441494e-33 9.588924402068568763e-34
1.018164577187017800e-33 9.738477460054941690e-34
1.033888894029965187e-33 9.889139330702949419e-34
1.049733703722283825e-33 1.004090852704085891e-33
1.065699006263973715e-33 1.019378355116791414e-33
1.081784801655035028e-33 1.034776289426945579e-33
1.097991089895467421e-33 1.050284503663156720e-33
1.114317870985271065e-33 1.065902844765589125e-33
1.130765144924445961e-33 1.081631158587556781e-33
1.147332911712992109e-33 1.097469289896937837e-33
1.164021171350909508e-33 1.113417082377735160e-33
1.180829923838198159e-33 1.129474378631710101e-33
1.197759169174857890e-33 1.145641020179832370e-33
1.214808907360889044e-33 1.161916847463869159e-33
1.231979138396291449e-33 1.178301699847986061e-33
1.249269862281065106e-33 1.194795415620277687e-33
1.266681079015210015e-33 1.211397831994465753e-33
1.284212788598726004e-33 1.228108785111360412e-33
1.301864991031613415e-33 1.244928110040624714e-33
1.319637686313871908e-33 1.261855640782321297e-33
1.337530874445501822e-33 1.278891210268543248e-33
1.355544555426502988e-33 1.296034650365100721e-33
1.373678729256875235e-33 1.313285791873149403e-33
1.391933395936618734e-33 1.330644464530903816e-33
1.410308555465733654e-33 1.348110497015282202e-33
1.428804207844219656e-33 1.365683716943558766e-33
1.447420353072077080e-33 1.383363950875166951e-33
1.466156991149305584e-33 1.401151024313347237e-33
1.485014122075905341e-33 1.419044761706848808e-33
1.503991745851876348e-33 1.437044986451701881e-33
1.523089862477218607e-33 1.455151520892995664e-33
1.542308471951932289e-33 1.473364186326502891e-33
1.561647574276016880e-33 1.491682803000572217e-33
1.581107169449472894e-33 1.510107190117870613e-33
1.600687257472300331e-33 1.528637165837125402e-33
1.620387838344498848e-33 1.547272547274972706e-33
1.640208912066068445e-33 1.566013150507693327e-33
1.660150478637009465e-33 1.584858790573104641e-33
1.680212538057321908e-33 1.603809281472368839e-33
1.700395090327005089e-33 1.622864436171776879e-33
1.720698135446060035e-33 1.642024066604654063e-33
1.741121673414486061e-33 1.661287983673158184e-33
1.761665704232283168e-33 1.680655997250235735e-33
1.782330227899451697e-33 1.700127916181390641e-33
1.803115244415991307e-33 1.719703548286656881e-33
1.824020753781902339e-33 1.739382700362447277e-33
1.845046755997184452e-33 1.759165178183471723e-33
1.866193251061837988e-33 1.779050786504658156e-33
1.887460238975862604e-33 1.799039329063074211e-33
1.908847719739258642e-33 1.819130608579894032e-33
1.930355693352025762e-33 1.839324426762303161e-33
1.951984159814164303e-33 1.859620584305436958e-33
1.973733119125673926e-33 1.880018880894440809e-33
1.995602571286554628e-33 1.900519115206349015e-33
2.017592516296807096e-33 1.921121084912128584e-33
2.039702954156430302e-33 1.941824586678633038e-33
2.061933884865424930e-33 1.962629416170743707e-33
2.084285308423790981e-33 1.983535368053106641e-33
2.106757224831528113e-33 2.004542235992421693e-33
2.129349634088636325e-33 2.025649812659400439e-33
2.152062536195115960e-33 2.046857889730830833e-33
2.174895931150967017e-33 2.068166257891476963e-33
2.197849818956189155e-33 2.089574706836400644e-33
2.220924199610782373e-33 2.111083025272792402e-33
2.244119073114747014e-33 2.132691000922302644e-33
2.267434439468082735e-33 2.154398420522902415e-33
2.290870298670789879e-33 2.176205069831130057e-33
2.314426650722868104e-33 2.198110733624149026e-33
2.338103495624317751e-33 2.220115195701923735e-33
2.361900833375138821e-33 2.242218238889282846e-33
2.385818663975330629e-33 2.264419645038093058e-33
2.409856987424894202e-33 2.286719195029488322e-33
2.434015803723828513e-33 2.309116668775849996e-33
2.458295112872134589e-33 2.331611845223183856e-33
2.482694914869811403e-33 2.354204502353224432e-33
2.507215209716859640e-33 2.376894417185518145e-33
2.531855997413279300e-33 2.399681365779766440e-33
2.556617277959070040e-33 2.422565123238007110e-33
2.581499051354232202e-33 2.445545463706776792e-33
2.606501317598765445e-33 2.468622160379390135e-33
2.631624076692670111e-33 2.491794985498172431e-33
2.656867328635945857e-33 2.515063710356716541e-33
2.682231073428592684e-33 2.538428105302043690e-33
2.707715311070610934e-33 2.561887939737068050e-33
2.733320041562000605e-33 2.585442982122667559e-33
2.759045264902761358e-33 2.609092999980120797e-33
2.784890981092893191e-33 2.632837759893241435e-33
2.810857190132396446e-33 2.656677027510814768e-33
2.836943892021270782e-33 2.680610567549006543e-33
2.863151086759516541e-33 2.704638143793362269e-33
2.889478774347133722e-33 2.728759519101410019e-33
2.915926954784121984e-33 2.752974455404859200e-33
2.942495628070481326e-33 2.777282713712191720e-33
2.969184794206212091e-33 2.801684054110653775e-33
2.995994453191313937e-33 2.826178235768859679e-33
3.022924605025787205e-33 2.850765016939077528e-33
3.049975249709631553e-33 2.875444154959737235e-33
3.077146387242847324e-33 2.900215406257742877e-33
3.104438017625433834e-33 2.925078526350865100e-33
3.131850140857392450e-33 2.950033269850045938e-33
3.159382756938721805e-33 2.975079390462118277e-33
3.187035865869422582e-33 3.000216640992023438e-33
3.214809467649494097e-33 3.025444773345099576e-33
3.242703562278937720e-33 3.050763538529979041e-33
3.270718149757752081e-33 3.076172686660667751e-33
3.298853230085937180e-33 3.101671966959119933e-33
3.327108803263494386e-33 3.127261127757692800e-33
3.355484869290422331e-33 3.152939916501743187e-33
3.383981428166721698e-33 3.178708079751968981e-33
3.412598479892392488e-33 3.204565363187053324e-33
3.441336024467434016e-33 3.230511511605955398e-33
3.470194061891847651e-33 3.256546268930722612e-33
3.499172592165632024e-33 3.282669378208829282e-33
3.528271615288787136e-33 3.308880581615717862e-33
3.557491131261314354e-33 3.335179620457390792e-33
3.586831140083212311e-33 3.361566235172942145e-33
3.616291641754481690e-33 3.388040165337075584e-33
3.645872636275122493e-33 3.414601149662939799e-33
3.675574123645134033e-33 3.441248926004224987e-33
3.705396103864516996e-33 3.467983231358150869e-33
3.735338576933271382e-33 3.494803801867972334e-33
3.765401542851397190e-33 3.521710372825386552e-33
3.795585001618893737e-33 3.548702678673538788e-33
3.825888953235761706e-33 3.575780453009150351e-33
3.856313397702001098e-33 3.602943428585568191e-33
3.886858335017611913e-33 3.630191337315184337e-33
3.917523765182593466e-33 3.657523910272124905e-33
3.948309688196946441e-33 3.684940877694987700e-33
3.979216104060670839e-33 3.712441968989259585e-33
4.010243012773765976e-33 3.740026912730396880e-33
4.041390414336233219e-33 3.767695436666077155e-33
4.072658308748071201e-33 3.795447267719145513e-33
4.104046696009279921e-33 3.823282131990220128e-33
4.135555576119860748e-33 3.851199754760431899e-33
4.167184949079812313e-33 3.879199860494140142e-33
4.198934814889135301e-33 3.907282172841605190e-33
4.230805173547829712e-33 3.935446414641699301e-33
4.262796025055894861e-33 3.963692307924770835e-33
4.294907369413332117e-33 3.992019573915249794e-33
4.327139206620140111e-33 4.020427933034451103e-33
4.359491536676318843e-33 4.048917104903291678e-33
4.391964359581869683e-33 4.077486808345246291e-33
4.424557675336791260e-33 4.106136761388789579e-33
4.457271483941084261e-33 4.134866681270512014e-33
4.490105785394748000e-33 4.163676284437662499e-33
4.523060579697783845e-33 4.192565286551078911e-33
4.556135866850190429e-33 4.221533402487966066e-33
4.589331646851968436e-33 4.250580346344801637e-33
4.622647919703117181e-33 4.279705831439910218e-33
4.656084685403638032e-33 4.308909570316526610e-33
4.689641943953529623e-33 4.338191274745478679e-33
4.723319695352792635e-33 4.367550655728308119e-33
4.757117939601426387e-33 4.396987423499607090e-33
4.791036676699431560e-33 4.426501287530431830e-33
4.825075906646808841e-33 4.456091956530924616e-33
4.859235629443556176e-33 4.485759138453036992e-33
4.893515845089675617e-33 4.515502540493692264e-33
4.927916553585165797e-33 4.545321869097542263e-33
4.962437754930027400e-33 4.575216829959831512e-33
4.997079449124260425e-33 4.605187128029342153e-33
5.031841636167864189e-33 4.635232467511442172e-33
5.066724316060840059e-33 4.665352551870606099e-33
5.101727488803186668e-33 4.695547083833863518e-33
5.136851154394904015e-33 4.725815765393280071e-33
5.172095312835993469e-33 4.756158297809319074e-33
5.207459964126453662e-33 4.786574381613367682e-33
5.242945108266285277e-33 4.817063716610924028e-33
5.278550745255487630e-33 4.847626001884624923e-33
5.314276875094062090e-33 4.878260935796968403e-33
5.350123497782007289e-33 4.908968215993634287e-33
5.386090613319323910e-33 4.939747539406080819e-33
5.422178221706011954e-33 4.970598602254843330e-33
5.458386322942070736e-33 5.001521100052388154e-33
5.494714917027500941e-33 5.032514727606124598e-33
5.531164003962302568e-33 5.063579179021492860e-33
5.567733583746474934e-33 5.094714147704890474e-33
5.604423656380019407e-33 5.125919326366756807e-33
5.641234221862934618e-33 5.157194407024556293e-33
5.678165280195221252e-33 5.188539081005858139e-33
5.715216831376878624e-33 5.219953038951366776e-33
5.752388875407908102e-33 5.251435970818076827e-33
5.789681412288308320e-33 5.282987565882081867e-33
5.827094442018079275e-33 5.314607512741970240e-33
5.864627964597222338e-33 5.346295499321538713e-33
5.902281980025736139e-33 5.378051212873142447e-33
5.940056488303621362e-33 5.409874339980779504e-33
5.977951489430878008e-33 5.441764566563003600e-33
6.015966983407505393e-33 5.473721577876163923e-33
6.054102970233504200e-33 5.505745058517410948e-33
6.092359449908874429e-33 5.537834692428002624e-33
6.130736422433616082e-33 5.569990162896170605e-33
6.169233887807729156e-33 5.602211152560365542e-33
6.207851846031212970e-33 5.634497343412561902e-33
6.246590297104067521e-33 5.666848416800849141e-33
6.285449241026294180e-33 5.699264053433400905e-33
6.324428677797891577e-33 5.731743933380844517e-33
6.363528607418861080e-33 5.764287736079968802e-33
6.402749029889201323e-33 5.796895140336537633e-33
6.442089945208912303e-33 5.829565824328648807e-33
6.481551353377995390e-33 5.862299465609845909e-33
6.521133254396449216e-33 5.895095741112325977e-33
6.560835648264273780e-33 5.927954327150023311e-33
6.600658534981470451e-33 5.960874899421973142e-33
6.640601914548037860e-33 5.993857133015485759e-33
6.680665786963977376e-33 6.026900702409129748e-33
6.720850152229287631e-33 6.060005281476273549e-33
6.761155010343968624e-33 6.093170543488060483e-33
6.801580361308020355e-33 6.126396161116846996e-33
6.842126205121444193e-33 6.159681806439088727e-33
6.882792541784240138e-33 6.193027150938815707e-33
6.923579371296406821e-33 6.226431865511230711e-33
6.964486693657944243e-33 6.259895620465139631e-33
7.005514508868852403e-33 6.293418085526584730e-33
7.046662816929132670e-33 6.326998929842722845e-33
7.087931617838783675e-33 6.360637821983858909e-33
7.129320911597806788e-33 6.394334429948005646e-33
7.170830698206200638e-33 6.428088421162995100e-33
7.212460977663965227e-33 6.461899462490748213e-33
7.254211749971101923e-33 6.495767220229718888e-33
7.296083015127609357e-33 6.529691360119000725e-33
7.338074773133487529e-33 6.563671547340943506e-33
7.380187023988737809e-33 6.597707446524894554e-33
7.422419767693358826e-33 6.631798721750229863e-33
7.464773004247351951e-33 6.665945036549715021e-33
7.507246733650715814e-33 6.700146053913276676e-33
7.549840955903450415e-33 6.734401436290374071e-33
7.592555671005557123e-33 6.768710845594436942e-33
7.635390878957034570e-33 6.803073943205334213e-33
7.678346579757882755e-33 6.837490389973226200e-33
7.721422773408103047e-33 6.871959846221566999e-33
7.764619459907694077e-33 6.906481971750874584e-33
7.807936639256657214e-33 6.941056425841610038e-33
7.851374311454991089e-33 6.975682867257981855e-33
7.894932476502695703e-33 7.010360954250842965e-33
7.938611134399771055e-33 7.045090344561567567e-33
7.982410285146218514e-33 7.079870695425194468e-33
8.026329928742038080e-33 7.114701663573429482e-33
8.070370065187228384e-33 7.149582905238897213e-33
8.114530694481789426e-33 7.184514076157754811e-33
8.158811816625721207e-33 7.219494831573449748e-33
8.203213431619025095e-33 7.254524826240106746e-33
8.247735539461699721e-33 7.289603714425728596e-33
8.292378140153746454e-33 7.324731149915896459e-33
8.337141233695163926e-33 7.359906786016978896e-33
8.382024820085952135e-33 7.395130275559651536e-33
8.427028899326112452e-33 7.430401270902389373e-33
8.472153471415643507e-33 7.465719423934529371e-33
8.517398536354545300e-33 7.501084386080370355e-33
8.562764094142819201e-33 7.536495808301792237e-33
8.608250144780463839e-33 7.571953341102520122e-33
8.653856688267480585e-33 7.607456634530941959e-33
8.699583724603868068e-33 7.643005338183973057e-33
8.745431253789626290e-33 7.678599101210162483e-33
8.791399275824756620e-33 7.714237572313405678e-33
8.837487790709257687e-33 7.749920399756521603e-33
8.883696798443129493e-33 7.785647231364270180e-33
8.930026299026373405e-33 7.821417714527315342e-33
8.976476292458988056e-33 7.857231496205413534e-33
9.023046778740973446e-33 7.893088222931064752e-33
9.069737757872330942e-33 7.928987540812784519e-33
9.116549229853060545e-33 7.964929095538698818e-33
9.163481194683159518e-33 8.000912532380334716e-33
9.210533652362630598e-33 8.036937496195704863e-33
9.257706602891472416e-33 8.073003631432918840e-33
9.305000046269686341e-33 8.109110582133672728e-33
9.352413982497271004e-33 8.145257991937082148e-33
9.399948411574227775e-33 8.181445504082736657e-33
9.447603333500555283e-33 8.217672761414639526e-33
9.495378748276253530e-33 8.253939406383977498e-33
9.543274655901322516e-33 8.290245081054190916e-33
9.591291056375763608e-33 8.326589427102440707e-33
9.639427949699576807e-33 8.362972085824948092e-33
9.687685335872759376e-33 8.399392698139535813e-33
9.736063214895314052e-33 8.435850904589468016e-33
9.784561586767240835e-33 8.472346345346865917e-33
9.833180451488538356e-33 8.508878660216566847e-33
9.881919809059206615e-33 8.545447488639311383e-33
9.930779659479245613e-33 8.582052469695491551e-33
9.979760002748656717e-33 8.618693242108864812e-33
1.002886083886743856e-32 8.655369444249737089e-33
1.007808216783559251e-32 8.692080714138724654e-33
1.012742398965311720e-32 8.728826689450435269e-33
1.017688630432001263e-32 8.765607007516978280e-33
1.022646911183628016e-32 8.802421305331562282e-33
1.027617241220191843e-32 8.839269219551738361e-33
1.032599620541692881e-32 8.876150386503541039e-33
1.037594049148130993e-32 8.913064442184667198e-33
1.042600527039506178e-32 8.950011022268529443e-33
1.047619054215818574e-32 8.986989762106998490e-33
1.052649630677068044e-32 9.024000296735012120e-33
1.057692256423254588e-32 9.061042260873484519e-33
1.062746931454378343e-32 9.098115288933262482e-33
1.067813655770439171e-32 9.135219015018416548e-33
1.072892429371437074e-32 9.172353072930242364e-33
1.077983252257372187e-32 9.209517096170572348e-33
1.083086124428244373e-32 9.246710717945452729e-33
1.088201045884053771e-32 9.283933571168790479e-33
1.093328016624800242e-32 9.321185288466108360e-33
1.098467036650483787e-32 9.358465502178123428e-33
1.103618105961104543e-32 9.395773844363910908e-33
1.108781224556662373e-32 9.433109946805496730e-33
1.113956392437157276e-32 9.470473441010415168e-33
1.119143609602589391e-32 9.507863958216093377e-33
1.124342876052958579e-32 9.545281129393335479e-33
1.129554191788264977e-32 9.582724585249647907e-33
1.134777556808508313e-32 9.620193956233274986e-33
1.140012971113688996e-32 9.657688872536754175e-33
1.145260434703806616e-32 9.695208964100146992e-33
1.150519947578861447e-32 9.732753860615427655e-33
1.155791509738853489e-32 9.770323191529807054e-33
1.161075121183782468e-32 9.807916586048899362e-33
1.166370781913648794e-32 9.845533673141214673e-33
1.171678491928452057e-32 9.883174081541231182e-33
1.176998251228192531e-32 9.920837439753334974e-33
1.182330059812870078e-32 9.958523376055306843e-33
1.187673917682484836e-32 9.996231518502371557e-33
1.193029824837036669e-32 1.003396149493028098e-32
1.198397781276525575e-32 1.007171293295915125e-32
1.203777787000951691e-32 1.010948545999791703e-32
1.209169842010314882e-32 1.014727870324681947e-32
1.214573946304615146e-32 1.018509228970183989e-32
1.219990099883852621e-32 1.022292584615809500e-32
1.225418302748027170e-32 1.026077899921364391e-32
1.230858554897138930e-32 1.029865137527323222e-32
1.236310856331187763e-32 1.033654260055165432e-32
1.241775207050173533e-32 1.037445230107804351e-32
1.247251607054096788e-32 1.041238010269867186e-32
1.252740056342956980e-32 1.045032563108175482e-32
1.258240554916754382e-32 1.048828851172005819e-32
1.263753102775488722e-32 1.052626836993530174e-32
1.269277699919160272e-32 1.056426483088155305e-32
1.274814346347769033e-32 1.060227751954923704e-32
1.280363042061314731e-32 1.064030606076838878e-32
1.285923787059797639e-32 1.067835007921270279e-32
1.291496581343217758e-32 1.071640919940296510e-32
1.297081424911575088e-32 1.075448304571107927e-32
1.302678317764869355e-32 1.079257124236355863e-32
1.308287259903100832e-32 1.083067341344547845e-32
1.313908251326269247e-32 1.086878918290333461e-32
1.319541292034374872e-32 1.090691817455010004e-32
1.325186382027417708e-32 1.094506001206820660e-32
1.330843521305397754e-32 1.098321431901293199e-32
1.336512709868314738e-32 1.102138071881665840e-32
1.342193947716168932e-32 1.105955883479251259e-32
1.347887234848960337e-32 1.109774829013786640e-32
1.353592571266688679e-32 1.113594870793820539e-32
1.359309956969354232e-32 1.117415971117088386e-32
1.365039391956956995e-32 1.121238092270857062e-32
1.370780876229496695e-32 1.125061196532359523e-32
1.376534409786973606e-32 1.128885246169067669e-32
1.382299992629387728e-32 1.132710203439177597e-32
1.388077624756739060e-32 1.136536030591902725e-32
1.393867306169027330e-32 1.140362689867867906e-32
1.399669036866252810e-32 1.144190143499502178e-32
1.405482816848415227e-32 1.148018353711365002e-32
1.411308646115514854e-32 1.151847282720579651e-32
1.417146524667551693e-32 1.155676892737175322e-32
1.422996452504525742e-32 1.159507145964403803e-32
1.428858429626436728e-32 1.163338004599263586e-32
1.434732456033284924e-32 1.167169430832689672e-32
1.440618531725070332e-32 1.171001386850079336e-32
1.446516656701792676e-32 1.174833834831555961e-32
1.452426830963452231e-32 1.178666736952396953e-32
1.458349054510048997e-32 1.182500055383430734e-32
1.464283327341582700e-32 1.186333752291346971e-32
1.470229649458053613e-32 1.190167789839077550e-32
1.476188020859461737e-32 1.194002130186244335e-32
1.482158441545806798e-32 1.197836735489454350e-32
1.488140911517089070e-32 1.201671567902717424e-32
1.494135430773308553e-32 1.205506589577732749e-32
1.500141999314465246e-32 1.209341762664437085e-32
1.506160617140558876e-32 1.213177049311206330e-32
1.512191284251589717e-32 1.217012411665290007e-32
1.518234000647557495e-32 1.220847811873241232e-32
1.524288766328462483e-32 1.224683212081184519e-32
1.530355581294304683e-32 1.228518574435274217e-32
1.536434445545084092e-32 1.232353861082048389e-32
1.542525359080800439e-32 1.236189034168743966e-32
1.548628321901453997e-32 1.240024055843777082e-32
1.554743334007044765e-32 1.243858888257015250e-32
1.560870395397572470e-32 1.247693493560235665e-32
1.567009506073037386e-32 1.251527833907403682e-32
1.573160666033439513e-32 1.255361871455154240e-32
1.579323875278778576e-32 1.259195568363052687e-32
1.585499133809054851e-32 1.263028886794088247e-32
1.591686441624268336e-32 1.266861788914936492e-32
1.597885798724418758e-32 1.270694236896411748e-32
1.604097205109506390e-32 1.274526192913796349e-32
1.610320660779531234e-32 1.278357619147232015e-32
1.616556165734493288e-32 1.282188477782088787e-32
1.622803719974392279e-32 1.286018731009326573e-32
1.629063323499228480e-32 1.289848341025902128e-32
1.635334976309001619e-32 1.293677270035111987e-32
1.641618678403711968e-32 1.297505480246996159e-32
1.647914429783359528e-32 1.301332933878617294e-32
1.654222230447944299e-32 1.305159593154596023e-32
1.660542080397466007e-32 1.308985420307299255e-32
1.666873979631924925e-32 1.312810377577416025e-32
1.673217928151321054e-32 1.316634427214147982e-32
1.679573925955654121e-32 1.320457531475631970e-32
1.685941973044924397e-32 1.324279652629401193e-32
1.692322069419131885e-32 1.328100752952674240e-32
1.698714215078276309e-32 1.331920794732707318e-32
1.705118410022357944e-32 1.335739740267224498e-32
1.711534654251376790e-32 1.339557551864823328e-32
1.717962947765332847e-32 1.343374191845196243e-32
1.724403290564225840e-32 1.347189622539672203e-32
1.730855682648056044e-32 1.351003806291476701e-32
1.737320124016823185e-32 1.354816705456152697e-32
1.743796614670527537e-32 1.358628282401946250e-32
1.750285154609169100e-32 1.362438499510131116e-32
1.756785743832747873e-32 1.366247319175394379e-32
1.763298382341263583e-32 1.370054703806191700e-32
1.769823070134716504e-32 1.373860615825220532e-32
1.776359807213106362e-32 1.377665017669641259e-32
1.782908593576433704e-32 1.381467871791561633e-32
1.789469429224697984e-32 1.385269140658341116e-32
1.796042314157899200e-32 1.389068786752952699e-32
1.802627248376037900e-32 1.392866772574478287e-32
1.809224231879113538e-32 1.396663060638310402e-32
1.815833264667126113e-32 1.400457613476618288e-32
1.822454346740076172e-32 1.404250393638685638e-32
1.829087478097963168e-32 1.408041363691318126e-32
1.835732658740787374e-32 1.411830486219164442e-32
1.842389888668548518e-32 1.415617723825132030e-32
1.849059167881246872e-32 1.419403039130680763e-32
1.855740496378882437e-32 1.423186394776308190e-32
1.862433874161455213e-32 1.426967753421801611e-32
1.869139301228964926e-32 1.430747077746692128e-32
1.875856777581411849e-32 1.434524330450575686e-32
1.882586303218795709e-32 1.438299474253466133e-32
1.889327878141117054e-32 1.442072471896254476e-32
1.896081502348375336e-32 1.445843286140944800e-32
1.902847175840570555e-32 1.449611879771164156e-32
1.909624898617702984e-32 1.453378215592360440e-32
1.916414670679772624e-32 1.457142256432369207e-32
1.923216492026779475e-32 1.460903965141591843e-32
1.930030362658723536e-32 1.464663304593501347e-32
1.936856282575604535e-32 1.468420237684933539e-32
1.943694251777422470e-32 1.472174727336469953e-32
1.950544270264177890e-32 1.475926736492828393e-32
1.957406338035870247e-32 1.479676228123158249e-32
1.964280455092499814e-32 1.483423165221522462e-32
1.971166621434066319e-32 1.487167510807151515e-32
1.978064837060570034e-32 1.490909227924873399e-32
1.984975101972010960e-32 1.494648279645439852e-32
1.991897416168389097e-32 1.498384629065942917e-32
1.998831779649704170e-32 1.502118239310094657e-32
2.005778192415956454e-32 1.505849073528681478e-32
2.012736654467145676e-32 1.509577094899874227e-32
2.019707165803272381e-32 1.513302266629614089e-32
2.026689726424336024e-32 1.517024551951953338e-32
2.033684336330336603e-32 1.520743914129441239e-32
2.040690995521274667e-32 1.524460316453462332e-32
2.047709703997149668e-32 1.528173722244639303e-32
2.054740461757961606e-32 1.531884094853155941e-32
2.061783268803711028e-32 1.535591397659126895e-32
2.068838125134397388e-32 1.539295594072988230e-32
2.075905030750020684e-32 1.542996647535799583e-32
2.082983985650581465e-32 1.546694521519645393e-32
2.090074989836079182e-32 1.550389179528022175e-32
2.097178043306514111e-32 1.554080585096137117e-32
2.104293146061885976e-32 1.557768701791319711e-32
2.111420298102195052e-32 1.561453493213329382e-32
2.118559499427441339e-32 1.565134922994775877e-32
2.125710750037624836e-32 1.568812954801441126e-32
2.132874049932745270e-32 1.572487552332618345e-32
2.140049399112802916e-32 1.576158679321512996e-32
2.147236797577797771e-32 1.579826299535597487e-32
2.154436245327729564e-32 1.583490376776930024e-32
2.161647742362598567e-32 1.587150874882557757e-32
2.168871288682404782e-32 1.590807757724868474e-32
2.176106884287147933e-32 1.594460989211791766e-32
2.183354529176828294e-32 1.598110533287546199e-32
2.190614223351445867e-32 1.601756353932526282e-32
2.197885966811000376e-32 1.605398415163980401e-32
2.205169759555492097e-32 1.609036681036238803e-32
2.212465601584921027e-32 1.612671115641075140e-32
2.219773492899286895e-32 1.616301683108078966e-32
2.227093433498589974e-32 1.619928347605036985e-32
2.234425423382830263e-32 1.623551073338222619e-32
2.241769462552007763e-32 1.627169824552806270e-32
2.249125551006122200e-32 1.630784565533128191e-32
2.256493688745173847e-32 1.634395260603200706e-32
2.263873875769162432e-32 1.638001874126926619e-32
2.271266112078088501e-32 1.641604370508455286e-32
2.278670397671951507e-32 1.645202714192606286e-32
2.286086732550751449e-32 1.648796869665204422e-32
2.293515116714488877e-32 1.652386801453381872e-32
2.300955550163163241e-32 1.655972474125943299e-32
2.308408032896774542e-32 1.659553852293757224e-32
2.315872564915323328e-32 1.663130900610064751e-32
2.323349146218809051e-32 1.666703583770842208e-32
2.330837776807231710e-32 1.670271866515141074e-32
2.338338456680591854e-32 1.673835713625475794e-32
2.345851185838888935e-32 1.677395089928090631e-32
2.353375964282123227e-32 1.680949960293387994e-32
2.360912792010294455e-32 1.684500289636236883e-32
2.368461669023402895e-32 1.688046042916306524e-32
2.376022595321448545e-32 1.691587185138449533e-32
2.383595570904431406e-32 1.695123681353030894e-32
2.391180595772351203e-32 1.698655496656253652e-32
2.398777669925208212e-32 1.702182596190514983e-32
2.406386793363002157e-32 1.705704945144806879e-32
2.414007966085733313e-32 1.709222508754900070e-32
2.421641188093401680e-32 1.712735252303908646e-32
2.429286459386007257e-32 1.716243141122481915e-32
2.436943779963549772e-32 1.719746140589156920e-32
2.444613149826029497e-32 1.723244216130714508e-32
2.452294568973446433e-32 1.726737333222604921e-32
2.459988037405800305e-32 1.730225457389155799e-32
2.467693555123091663e-32 1.733708554203974511e-32
2.475411122125319683e-32 1.737186589290345002e-32
2.483140738412485188e-32 1.740659528321403777e-32
2.490882403984587630e-32 1.744127337020693857e-32
2.498636118841627009e-32 1.747589981162325428e-32
2.506401882983603872e-32 1.751047426571407184e-32
2.514179696410517672e-32 1.754499639124350943e-32
2.521969559122368957e-32 1.757946584749177907e-32
2.529771471119156631e-32 1.761388229425974906e-32
2.537585432400881789e-32 1.764824539187053411e-32
2.545411442967544432e-32 1.768255480117444919e-32
2.553249502819144012e-32 1.771681018355174912e-32
2.561099611955680529e-32 1.775101120091512193e-32
2.568961770377153983e-32 1.778515751571474119e-32
2.576835978083564921e-32 1.781924879094001492e-32
2.584722235074912796e-32 1.785328469012386607e-32
2.592620541351198156e-32 1.788726487734588822e-32
2.600530896912420453e-32 1.792118901723520017e-32
2.608453301758579686e-32 1.795505677497415442e-32
2.616387755889675857e-32 1.798886781630186785e-32
2.624334259305709512e-32 1.802262180751693120e-32
2.632292812006680104e-32 1.805631841548106562e-32
2.640263413992588180e-32 1.808995730762217705e-32
2.648246065263433194e-32 1.812353815193832201e-32
2.656240765819215144e-32 1.815706061699992448e-32
2.664247515659934579e-32 1.819052437195350634e-32
2.672266314785590951e-32 1.822392908652601440e-32
2.680297163196184259e-32 1.825727443102587959e-32
2.688340060891715052e-32 1.829056007634796806e-32
2.696395007872182782e-32 1.832378569397670120e-32
2.704462004137587449e-32 1.835695095598848882e-32
2.712541049687929054e-32 1.839005553505560183e-32
2.720632144523208142e-32 1.842309910444933613e-32
2.728735288643424715e-32 1.845608133804280154e-32
2.736850482048577677e-32 1.848900191031486290e-32
2.744977724738668671e-32 1.852186049635253765e-32
2.753117016713696055e-32 1.855465677185518604e-32
2.761268357973660923e-32 1.858739041313614230e-32
2.769431748518562729e-32 1.862006109712834447e-32
2.777607188348401471e-32 1.865266850138481341e-32
2.785794677463177697e-32 1.868521230408399790e-32
2.793994215862890861e-32 1.871769218403151268e-32
2.802205803547540961e-32 1.875010782066406307e-32
2.810429440517128546e-32 1.878245889405234894e-32
2.818665126771653068e-32 1.881474508490447756e-32
2.826912862311114527e-32 1.884696607456872518e-32
2.835172647135513470e-32 1.887912154503700196e-32
2.843444481244849350e-32 1.891121117894748484e-32
2.851728364639122715e-32 1.894323465958877771e-32
2.860024297318333017e-32 1.897519167090201056e-32
2.868332279282480255e-32 1.900708189748416213e-32
2.876652310531564431e-32 1.903890502459167534e-32
2.884984391065586091e-32 1.907066073814343234e-32
2.893328520884544688e-32 1.910234872472302066e-32
2.901684699988440769e-32 1.913396867158271813e-32
2.910052928377273787e-32 1.916552026664687028e-32
2.918433206051043743e-32 1.919700319851354886e-32
2.926825533009750635e-32 1.922841715645907597e-32
2.935229909253395012e-32 1.925976183044052287e-32
2.943646334781976873e-32 1.929103691109817319e-32
2.952074809595495123e-32 1.932224208975991021e-32
2.960515333693950858e-32 1.935337705844346109e-32
2.968967907077343531e-32 1.938444150985871509e-32
2.977432529745673687e-32 1.941543513741242827e-32
2.985909201698940780e-32 1.944635763521000251e-32
2.994397922937144811e-32 1.947720869805873423e-32
3.002898693460286326e-32 1.950798802147124919e-32
3.011411513268364777e-32 1.953869530166792739e-32
3.019936382361380166e-32 1.956933023558024487e-32
3.028473300739333039e-32 1.959989252085401145e-32
3.037022268402222849e-32 1.963038185585156574e-32
3.045583285350049596e-32 1.966079793965560135e-32
3.054156351582813828e-32 1.969114047207162188e-32
3.062741467100514996e-32 1.972140915363118691e-32
3.071338631903153102e-32 1.975160368559435059e-32
3.079947845990728692e-32 1.978172376995354257e-32
3.088569109363241219e-32 1.981176910943538532e-32
3.097202422020690682e-32 1.984173940750514160e-32
3.105847783963077631e-32 1.987163436836733300e-32
3.114505195190401516e-32 1.990145369697129042e-32
3.123174655702662885e-32 1.993119709901192859e-32
3.131856165499860645e-32 1.996086428093390070e-32
3.140549724581996436e-32 1.999045494993443385e-32
3.149255332949068616e-32 2.001996881396531333e-32
3.157972990601078281e-32 2.004940558173664857e-32
3.166702697538024883e-32 2.007876496271940480e-32
3.175444453759908422e-32 2.010804666714846839e-32
3.184198259266729445e-32 2.013725040602494041e-32
3.192964114058487406e-32 2.016637589112011605e-32
3.201742018135182850e-32 2.019542283497694067e-32
3.210531971496815232e-32 2.022439095091389625e-32
3.219333974143384551e-32 2.025327995302732224e-32
3.228148026074891354e-32 2.028208955619438514e-32
3.236974127291334546e-32 2.031081947607606174e-32
3.245812277792715771e-32 2.033946942911961871e-32
3.254662477579033385e-32 2.036803913256159043e-32
3.263524726650288483e-32 2.039652830443046658e-32
3.272399025006480518e-32 2.042493666354961247e-32
3.281285372647610038e-32 2.045326392954004695e-32
3.290183769573676495e-32 2.048150982282322044e-32
3.299094215784679889e-32 2.050967406462344797e-32
3.308016711280620767e-32 2.053775637697080765e-32
3.316951256061498582e-32 2.056575648270441942e-32
3.325897850127313334e-32 2.059367410547464556e-32
3.334856493478065570e-32 2.062150896974566064e-32
3.343827186113754744e-32 2.064926080079859626e-32
3.352809928034380854e-32 2.067692932473444212e-32
3.361804719239944449e-32 2.070451426847553220e-32
3.370811559730444981e-32 2.073201535976997309e-32
3.379830449505882450e-32 2.075943232719267304e-32
3.388861388566257403e-32 2.078676490014977030e-32
3.397904376911569293e-32 2.081401280887940492e-32
3.406959414541818120e-32 2.084117578445575297e-32
3.416026501457004432e-32 2.086825355879140763e-32
3.425105637657127680e-32 2.089524586463945929e-32
3.434196823142187866e-32 2.092215243559709725e-32
3.443300057912185536e-32 2.094897300610679487e-32
3.452415341967120143e-32 2.097570731146076796e-32
3.461542675306992234e-32 2.100235508780191631e-32
3.470682057931801262e-32 2.102891607212766626e-32
3.479833489841547227e-32 2.105539000229199607e-32
3.488996971036230130e-32 2.108177661700755700e-32
3.498172501515850516e-32 2.110807565584932162e-32
3.507360081280407840e-32 2.113428685925607540e-32
3.516559710329902648e-32 2.116040996853431960e-32
3.525771388664333845e-32 2.118644472585913061e-32
3.534995116283703075e-32 2.121239087427813121e-32
3.544230893188008694e-32 2.123824815771292202e-32
3.553478719377251797e-32 2.126401632096324429e-32
3.562738594851431837e-32 2.128969510970741784e-32
3.572010519610549362e-32 2.131528427050597565e-32
3.581294493654603824e-32 2.134078355080443365e-32
3.590590516983595223e-32 2.136619269893491093e-32
3.599898589597523558e-32 2.139151146411987114e-32
3.609218711496389378e-32 2.141673959647297362e-32
3.618550882680192683e-32 2.144187684700277101e-32
3.627895103148932377e-32 2.146692296761502741e-32
3.637251372902609555e-32 2.149187771111415522e-32
3.646619691941224218e-32 2.151674083120716455e-32
3.656000060264775270e-32 2.154151208250514384e-32
3.665392477873263807e-32 2.156619122052579979e-32
3.674796944766689281e-32 2.159077800169602722e-32
3.684213460945052239e-32 2.161527218335432857e-32
3.693642026408352134e-32 2.163967352375268594e-32
3.703082641156588966e-32 2.166398178206020662e-32
3.712535305189763283e-32 2.168819671836355556e-32
3.722000018507874536e-32 2.171231809367166558e-32
3.731476781110923274e-32 2.173634566991596999e-32
3.740965592998908402e-32 2.176027920995422060e-32
3.750466454171831014e-32 2.178411847757173578e-32
3.759979364629691110e-32 2.180786323748476131e-32
3.769504324372487596e-32 2.183151325534219744e-32
3.779041333400222113e-32 2.185506829772779387e-32
3.788590391712893021e-32 2.187852813216271149e-32
3.798151499310501412e-32 2.190189252710813341e-32
3.807724656193046741e-32 2.192516125196655675e-32
3.817309862360529006e-32 2.194833407708544647e-32
3.826907117812948756e-32 2.197141077375806460e-32
3.836516422550305443e-32 2.199439111422692973e-32
3.846137776572599614e-32 2.201727487168497198e-32
3.855771179879830723e-32 2.204006182027932085e-32
3.865416632471998768e-32 2.206275173511163646e-32
3.875074134349103750e-32 2.208534439224154430e-32
3.884743685511146217e-32 2.210783956868914774e-32
3.894425285958125621e-32 2.213023704243538386e-32
3.904118935690042509e-32 2.215253659242679657e-32
3.913824634706896334e-32 2.217473799857564613e-32
3.923542383008687096e-32 2.219684104176302371e-32
3.933272180595415342e-32 2.221884550384069339e-32
3.943014027467079978e-32 2.224075116763376060e-32
3.952767923623682646e-32 2.226255781694207617e-32
3.962533869065221703e-32 2.228426523654257638e-32
3.972311863791698245e-32 2.230587321219205549e-32
3.982101907803112271e-32 2.232738153062846299e-32
3.991904001099462687e-32 2.234878997957343525e-32
4.001718143680750587e-32 2.237009834773398422e-32
4.011544335546975424e-32 2.239130642480539580e-32
4.021382576698137746e-32 2.241241400147237659e-32
4.031232867134237004e-32 2.243342086941180728e-32
4.041095206855273200e-32 2.245432682129419314e-32
4.050969595861246879e-32 2.247513165078618201e-32
4.060856034152157496e-32 2.249583515255271555e-32
4.070754521728005050e-32 2.251643712225858099e-32
4.080665058588790088e-32 2.253693735657043377e-32
4.090587644734512063e-32 2.255733565315961107e-32
4.100522280165171523e-32 2.257763181070262445e-32
4.110468964880767372e-32 2.259782562888489570e-32
4.120427698881300706e-32 2.261791690840182979e-32
4.130398482166771524e-32 2.263790545096020240e-32
4.140381314737179279e-32 2.265779105928144699e-32
4.150376196592523971e-32 2.267757353710227882e-32
4.160383127732805599e-32 2.269725268917828030e-32
4.170402108158024713e-32 2.271682832128347949e-32
4.180433137868180763e-32 2.273630024021468811e-32
4.190476216863274298e-32 2.275566825379165755e-32
4.200531345143304222e-32 2.277493217086020717e-32
4.210598522708272178e-32 2.279409180129308641e-32
4.220677749558176524e-32 2.281314695599243253e-32
4.230769025693018354e-32 2.283209744689183973e-32
4.240872351112797121e-32 2.285094308695722675e-32
4.250987725817513372e-32 2.286968369018992411e-32
4.261115149807166013e-32 2.288831907162767306e-32
4.271254623081756686e-32 2.290684904734712986e-32
4.281406145641283748e-32 2.292527343446441047e-32
4.291569717485748295e-32 2.294359205113827898e-32
4.301745338615149778e-32 2.296180471657193211e-32
4.311933009029488746e-32 2.297991125101316620e-32
4.322132728728764652e-32 2.299791147575796248e-32
4.332344497712977494e-32 2.301580521315149159e-32
4.342568315982127820e-32 2.303359228658983780e-32
4.352804183536215083e-32 2.305127252052135926e-32
4.363052100375239284e-32 2.306884574044955081e-32
4.373312066499200969e-32 2.308631177293398821e-32
4.383584081908099591e-32 2.310367044559179788e-32
4.393868146601935149e-32 2.312092158709981354e-32
4.404164260580708192e-32 2.313806502719644012e-32
4.414472423844418173e-32 2.315510059668251035e-32
4.424792636393065090e-32 2.317202812742411747e-32
4.435124898226649491e-32 2.318884745235349381e-32
4.445469209345170830e-32 2.320555840547038197e-32
4.455825569748629105e-32 2.322216082184467045e-32
4.466193979437024865e-32 2.323865453761694651e-32
4.476574438410357562e-32 2.325503939000103878e-32
4.486966946668627196e-32 2.327131521728501073e-32
4.497371504211834314e-32 2.328748185883318603e-32
4.507788111039978369e-32 2.330353915508716388e-32
4.518216767153059909e-32 2.331948694756794564e-32
4.528657472551077838e-32 2.333532507887734431e-32
4.539110227234033252e-32 2.335105339269926544e-32
4.549575031201926150e-32 2.336667173380160924e-32
4.560051884454755985e-32 2.338217994803800854e-32
4.570540786992522757e-32 2.339757788234820923e-32
4.581041738815226466e-32 2.341286538476080169e-32
4.591554739922867659e-32 2.342804230439454543e-32
4.602079790315445789e-32 2.344310849145937357e-32
4.612616889992961404e-32 2.345806379725799666e-32
4.623166038955413956e-32 2.347290807418749010e-32
4.633727237202803444e-32 2.348764117574129751e-32
4.644300484735129870e-32 2.350226295650903647e-32
4.654885781552393780e-32 2.351677327217996068e-32
4.665483127654595175e-32 2.353117197954307493e-32
4.676092523041732959e-32 2.354545893648903996e-32
4.686713967713808227e-32 2.355963400201113860e-32
4.697347461670820432e-32 2.357369703620727649e-32
4.707993004912770122e-32 2.358764790028106857e-32
4.718650597439656749e-32 2.360148645654317749e-32
4.729320239251480313e-32 2.361521256841252053e-32
4.740001930348241361e-32 2.362882610041774212e-32
4.750695670729939346e-32 2.364232691819918709e-32
4.761401460396574268e-32 2.365571488850873105e-32
4.772119299348146675e-32 2.366898987921291133e-32
4.782849187584656018e-32 2.368215175929296539e-32
4.793591125106102299e-32 2.369520039884619920e-32
4.804345111912486063e-32 2.370813566908808377e-32
4.815111148003806765e-32 2.372095744235235910e-32
4.825889233380064404e-32 2.373366559209343725e-32
4.836679368041259527e-32 2.374625999288707555e-32
4.847481551987391588e-32 2.375874052043166574e-32
4.858295785218460585e-32 2.377110705154929861e-32
4.869122067734467066e-32 2.378335946418757583e-32
4.879960399535410485e-32 2.379549763741970847e-32
4.890810780621290840e-32 2.380752145144714995e-32
4.901673210992108680e-32 2.381943078759969178e-32
4.912547690647863457e-32 2.383122552833688405e-32
4.923434219588555719e-32 2.384290555724948050e-32
4.934332797814184917e-32 2.385447075906021035e-32
4.945243425324751052e-32 2.386592101962533285e-32
4.956166102120254124e-32 2.387725622593523940e-32
4.967100828200694134e-32 2.388847626611606833e-32
4.978047603566072175e-32 2.389958102943067377e-32
4.989006428216387153e-32 2.391057040627937010e-32
4.999977302151639068e-32 2.392144428820138248e-32
5.010960225371827920e-32 2.393220256787632482e-32
5.021955197876953709e-32 2.394284513912392058e-32
5.032962219667017530e-32 2.395337189690623066e-32
5.043981290742017193e-32 2.396378273732869884e-32
5.055012411101954887e-32 2.397407755764034890e-32
5.066055580746829519e-32 2.398425625623561010e-32
5.077110799676641088e-32 2.399431873265453066e-32
5.088178067891389593e-32 2.400426488758489341e-32
5.099257385391076131e-32 2.401409462286190379e-32
5.110348752175698511e-32 2.402380784147008648e-32
5.121452168245258922e-32 2.403340444754400253e-32
5.132567633599756271e-32 2.404288434636890619e-32
5.143695148239190556e-32 2.405224744438206957e-32
5.154834712163562873e-32 2.406149364917374878e-32
5.165986325372871033e-32 2.407062286948731803e-32
5.177149987867117224e-32 2.407963501522108148e-32
5.188325699646300352e-32 2.408852999742889999e-32
5.199513460710420417e-32 2.409730772832071385e-32
5.210713271059477419e-32 2.410596812126394683e-32
5.221925130693471358e-32 2.411451109078436011e-32
5.233149039612403329e-32 2.412293655256582234e-32
5.244384997816271143e-32 2.413124442345278112e-32
5.255633005305076987e-32 2.413943462144950758e-32
5.266893062078819769e-32 2.414750706572225033e-32
5.278165168137499488e-32 2.415546167659934495e-32
5.289449323481117239e-32 2.416329837557198032e-32
5.300745528109670832e-32 2.417101708529503064e-32
5.312053782023162456e-32 2.417861772958780534e-32
5.323374085221591018e-32 2.418610023343520679e-32
5.334706437704956517e-32 2.419346452298800401e-32
5.346050839473258952e-32 2.420071052556347309e-32
5.357407290526499420e-32 2.420783816964654122e-32
5.368775790864675729e-32 2.421484738489021366e-32
5.380156340487790070e-32 2.422173810211635376e-32
5.391548939395841349e-32 2.422851025331653957e-32
5.402953587588829564e-32 2.423516377165218159e-32
5.414370285066754716e-32 2.424169859145587477e-32
5.425799031829617901e-32 2.424811464823148337e-32
5.437239827877416927e-32 2.425441187865501674e-32
5.448692673210153985e-32 2.426059022057566666e-32
5.460157567827827980e-32 2.426664961301545694e-32
5.471634511730438912e-32 2.427258999617052987e-32
5.483123504917986781e-32 2.427841131141187962e-32
5.494624547390472682e-32 2.428411350128560682e-32
5.506137639147894425e-32 2.428969650951306635e-32
5.517662780190254200e-32 2.429516028099250125e-32
5.529199970517550912e-32 2.430050476179858843e-32
5.540749210129784560e-32 2.430572989918338562e-32
5.552310499026956241e-32 2.431083564157703748e-32
5.563883837209063764e-32 2.431582193858777564e-32
5.575469224676109318e-32 2.432068874100314205e-32
5.587066661428091810e-32 2.432543600078931847e-32
5.598676147465011238e-32 2.433006367109313811e-32
5.610297682786867604e-32 2.433457170624118515e-32
5.621931267393660906e-32 2.433896006174112762e-32
5.633576901285392240e-32 2.434322869428135891e-32
5.645234584462059417e-32 2.434737756173264534e-32
5.656904316923664625e-32 2.435140662314705603e-32
5.668586098670206770e-32 2.435531583875928489e-32
5.680279929701685852e-32 2.435910516998699538e-32
5.691985810018102966e-32 2.436277457943125848e-32
5.703703739619455923e-32 2.436632403087653351e-32
5.715433718505746911e-32 2.436975348929095278e-32
5.727175746676974836e-32 2.437306292082695379e-32
5.738929824133139697e-32 2.437625229282208391e-32
5.750695950874241496e-32 2.437932157379843109e-32
5.762474126900281327e-32 2.438227073346350789e-32
5.774264352211257000e-32 2.438509974271012009e-32
5.786066626807170705e-32 2.438780857361716590e-32
5.797880950688021346e-32 2.439039719944986034e-32
5.809707323853808925e-32 2.439286559465917696e-32
5.821545746304533441e-32 2.439521373488297269e-32
5.833396218040195988e-32 2.439744159694639834e-32
5.845258739060794378e-32 2.439954915886119530e-32
5.857133309366330799e-32 2.440153639982649462e-32
5.869019928956804158e-32 2.440340330022902782e-32
5.880918597832214453e-32 2.440514984164358120e-32
5.892829315992561685e-32 2.440677600683189286e-32
5.904752083437846949e-32 2.440828177974471631e-32
5.916686900168068056e-32 2.440966714552084344e-32
5.928633766183227194e-32 2.441093209048701691e-32
5.940592681483323269e-32 2.441207660215880320e-32
5.952563646068356281e-32 2.441310066924046678e-32
5.964546659938327325e-32 2.441400428162460056e-32
5.976541723093234211e-32 2.441478743039322616e-32
5.988548835533079129e-32 2.441545010781666357e-32
6.000567997257860984e-32 2.441599230735496802e-32
6.012599208267579776e-32 2.441641402365638086e-32
6.024642468562235504e-32 2.441671525255898545e-32
6.036697778141828170e-32 2.441689599108985320e-32
