   0.00000000       0.00000000       34.5011444    
   1.00000005E-03   3.44962478E-02   34.4913445    
   2.00000009E-03   6.89826906E-02   34.4815445    
   3.00000003E-03  0.103459336       34.4717445    
   4.00000019E-03  0.137926191       34.4619446    
   5.00000035E-03  0.172383234       34.4521446    
   6.00000005E-03  0.206830487       34.4423447    
   7.00000022E-03  0.241267934       34.4325447    
   8.00000038E-03  0.275695562       34.4227448    
   9.00000054E-03  0.310113400       34.4129448    
   1.00000007E-02  0.344521463       34.4031448    
   1.10000009E-02  0.378919721       34.3933449    
   1.20000001E-02  0.413308173       34.3835449    
   1.30000003E-02  0.447686821       34.3737450    
   1.40000004E-02  0.482055664       34.3639450    
   1.50000006E-02  0.516414702       34.3541451    
   1.60000008E-02  0.550763965       34.3443451    
   1.70000009E-02  0.585103393       34.3345451    
   1.80000011E-02  0.619432986       34.3247452    
   1.90000013E-02  0.653752923       34.3149452    
   2.00000014E-02  0.688062966       34.3051453    
   2.10000016E-02  0.722363174       34.2953453    
   2.20000017E-02  0.756653607       34.2855453    
   2.30000019E-02  0.790934324       34.2757454    
   2.40000002E-02  0.825205147       34.2659454    
   2.50000004E-02  0.859466195       34.2561455    
   2.60000005E-02  0.893717408       34.2463455    
   2.70000007E-02  0.927958906       34.2365456    
   2.80000009E-02  0.962190568       34.2267456    
   2.90000010E-02  0.996412456       34.2169456    
   3.00000012E-02   1.03062439       34.2071457    
   3.10000014E-02   1.06482673       34.1973457    
   3.20000015E-02   1.09901905       34.1875458    
   3.29999998E-02   1.13320172       34.1777458    
   3.40000018E-02   1.16737449       34.1679459    
   3.50000001E-02   1.20153737       34.1581459    
   3.60000022E-02   1.23569059       34.1483459    
   3.70000005E-02   1.26983392       34.1385460    
   3.80000025E-02   1.30396760       34.1287460    
   3.90000008E-02   1.33809137       34.1189461    
   4.00000028E-02   1.37220538       34.1091461    
   4.10000011E-02   1.40630960       34.0993462    
   4.20000032E-02   1.44040394       34.0895462    
   4.30000015E-02   1.47448850       34.0797462    
   4.40000035E-02   1.50856328       34.0699463    
   4.50000018E-02   1.54262829       34.0601463    
   4.60000038E-02   1.57668352       34.0503464    
   4.70000021E-02   1.61072886       34.0405464    
   4.80000004E-02   1.64476442       34.0307465    
   4.90000024E-02   1.67879021       34.0209465    
   5.00000007E-02   1.71280622       34.0111465    
   5.10000028E-02   1.74681234       34.0013466    
   5.20000011E-02   1.78080881       33.9915466    
   5.30000031E-02   1.81479537       33.9817429    
   5.40000014E-02   1.84877217       33.9719429    
   5.50000034E-02   1.88273919       33.9621429    
   5.60000017E-02   1.91669631       33.9523430    
   5.70000038E-02   1.95064378       33.9425430    
   5.80000021E-02   1.98458147       33.9327431    
   5.90000041E-02   2.01850915       33.9229431    
   6.00000024E-02   2.05242705       33.9131432    
   6.10000044E-02   2.08633542       33.9033432    
   6.20000027E-02   2.12023377       33.8935432    
   6.30000010E-02   2.15412235       33.8837433    
   6.40000030E-02   2.18800116       33.8739433    
   6.50000051E-02   2.22187018       33.8641434    
   6.59999996E-02   2.25572944       33.8543434    
   6.70000017E-02   2.28957915       33.8445435    
   6.80000037E-02   2.32341886       33.8347435    
   6.90000057E-02   2.35724878       33.8249435    
   7.00000003E-02   2.39106894       33.8151436    
   7.10000023E-02   2.42487907       33.8053436    
   7.20000044E-02   2.45867968       33.7955437    
   7.30000064E-02   2.49247050       33.7857437    
   7.40000010E-02   2.52625132       33.7759438    
   7.50000030E-02   2.56002259       33.7661438    
   7.60000050E-02   2.59378362       33.7563438    
   7.70000070E-02   2.62753534       33.7465439    
   7.80000016E-02   2.66127682       33.7367439    
   7.90000036E-02   2.69500875       33.7269440    
   8.00000057E-02   2.72873116       33.7171440    
   8.10000002E-02   2.76244330       33.7073441    
   8.20000023E-02   2.79614592       33.6975441    
   8.30000043E-02   2.82983851       33.6877441    
   8.40000063E-02   2.86352134       33.6779442    
   8.50000009E-02   2.89719462       33.6681442    
   8.60000029E-02   2.93085790       33.6583443    
   8.70000049E-02   2.96451139       33.6485443    
   8.80000070E-02   2.99815512       33.6387444    
   8.90000015E-02   3.03178906       33.6289444    
   9.00000036E-02   3.06541300       33.6191444    
   9.10000056E-02   3.09902740       33.6093445    
   9.20000076E-02   3.13263202       33.5995445    
   9.30000022E-02   3.16622663       33.5897446    
   9.40000042E-02   3.19981170       33.5799446    
   9.50000063E-02   3.23338652       33.5701447    
   9.60000008E-02   3.26695204       33.5603447    
   9.70000029E-02   3.30050755       33.5505447    
   9.80000049E-02   3.33405328       33.5407448    
   9.90000069E-02   3.36758924       33.5309448    
  0.100000001       3.40111518       33.5211449    
  0.101000004       3.43463159       33.5113449    
  0.102000006       3.46813798       33.5015450    
  0.103000008       3.50163484       33.4917450    
  0.104000002       3.53512192       33.4819450    
  0.105000004       3.56859875       33.4721451    
  0.106000006       3.60206628       33.4623451    
  0.107000008       3.63552356       33.4525452    
  0.108000003       3.66897130       33.4427452    
  0.109000005       3.70240927       33.4329453    
  0.110000007       3.73583746       33.4231453    
  0.111000009       3.76925588       33.4133453    
  0.112000003       3.80266428       33.4035454    
  0.113000005       3.83606291       33.3937454    
  0.114000008       3.86945176       33.3839455    
  0.115000002       3.90283108       33.3741455    
  0.116000004       3.93620038       33.3643456    
  0.117000006       3.96955967       33.3545456    
  0.118000008       4.00290918       33.3447456    
  0.119000003       4.03624964       33.3349457    
  0.120000005       4.06957960       33.3251457    
  0.121000007       4.10289955       33.3153458    
  0.122000009       4.13621044       33.3055458    
  0.123000003       4.16951132       33.2957458    
  0.124000005       4.20280218       33.2859459    
  0.125000000       4.23608303       33.2761459    
  0.126000002       4.26935482       33.2663460    
  0.127000004       4.30261612       33.2565460    
  0.128000006       4.33586740       33.2467461    
  0.129000008       4.36910963       33.2369461    
  0.130000010       4.40234184       33.2271461    
  0.131000012       4.43556404       33.2173462    
  0.131999999       4.46877623       33.2075462    
  0.133000001       4.50197935       33.1977463    
  0.134000003       4.53517199       33.1879463    
  0.135000005       4.56835508       33.1781464    
  0.136000007       4.60152864       33.1683464    
  0.137000009       4.63469219       33.1585464    
  0.138000011       4.66784573       33.1487465    
  0.139000013       4.70098972       33.1389465    
  0.140000001       4.73412418       33.1291466    
  0.141000003       4.76724815       33.1193466    
  0.142000005       4.80036259       33.1095467    
  0.143000007       4.83346748       33.0997467    
  0.144000009       4.86656237       33.0899467    
  0.145000011       4.89964724       33.0801468    
  0.146000013       4.93272257       33.0703468    
  0.147000000       4.96578836       33.0605469    
  0.148000002       4.99884415       33.0507469    
  0.149000004       5.03188992       33.0409470    
  0.150000006       5.06492615       33.0311470    
  0.151000008       5.09795237       33.0213470    
  0.152000010       5.13096857       33.0115471    
  0.153000012       5.16397572       33.0017471    
  0.154000014       5.19697237       32.9919472    
  0.155000001       5.22995949       32.9821472    
  0.156000003       5.26293659       32.9723473    
  0.157000005       5.29590464       32.9625473    
  0.158000007       5.32886219       32.9527473    
  0.159000009       5.36180973       32.9429474    
  0.160000011       5.39474821       32.9331474    
  0.161000013       5.42767668       32.9233475    
  0.162000000       5.46059513       32.9135475    
  0.163000003       5.49350357       32.9037476    
  0.164000005       5.52640295       32.8939476    
  0.165000007       5.55929184       32.8841476    
  0.166000009       5.59217072       32.8743477    
  0.167000011       5.62504053       32.8645477    
  0.168000013       5.65790033       32.8547478    
  0.169000015       5.69075012       32.8449478    
  0.170000002       5.72358990       32.8351479    
  0.171000004       5.75642061       32.8253479    
  0.172000006       5.78924131       32.8155479    
  0.173000008       5.82205153       32.8057480    
  0.174000010       5.85485315       32.7959480    
  0.175000012       5.88764381       32.7861481    
  0.176000014       5.92042494       32.7763481    
  0.177000001       5.95319700       32.7665482    
  0.178000003       5.98595858       32.7567482    
  0.179000005       6.01871014       32.7469482    
  0.180000007       6.05145216       32.7371483    
  0.181000009       6.08418512       32.7273483    
  0.182000011       6.11690712       32.7175484    
  0.183000013       6.14962006       32.7077484    
  0.184000015       6.18232298       32.6979485    
  0.185000002       6.21501637       32.6881485    
  0.186000004       6.24769926       32.6783485    
  0.187000006       6.28037262       32.6685486    
  0.188000008       6.31303692       32.6587486    
  0.189000010       6.34569073       32.6489487    
  0.190000013       6.37833452       32.6391487    
  0.191000015       6.41096926       32.6293488    
  0.192000002       6.44359350       32.6195488    
  0.193000004       6.47620821       32.6097488    
  0.194000006       6.50881290       32.5999489    
  0.195000008       6.54140854       32.5901489    
  0.196000010       6.57399368       32.5803490    
  0.197000012       6.60656881       32.5705490    
  0.198000014       6.63913488       32.5607491    
  0.199000016       6.67169094       32.5509491    
  0.200000003       6.70423698       32.5411491    
  0.201000005       6.73677301       32.5313492    
  0.202000007       6.76929998       32.5215492    
  0.203000009       6.80181646       32.5117493    
  0.204000011       6.83432293       32.5019493    
  0.205000013       6.86682081       32.4921494    
  0.206000015       6.89930773       32.4823494    
  0.207000017       6.93178511       32.4725494    
  0.208000004       6.96425343       32.4627495    
  0.209000006       6.99671078       32.4529495    
  0.210000008       7.02915907       32.4431496    
  0.211000010       7.06159735       32.4333496    
  0.212000012       7.09402609       32.4235497    
  0.213000014       7.12644482       32.4137497    
  0.214000016       7.15885353       32.4039497    
  0.215000004       7.19125271       32.3941498    
  0.216000006       7.22364187       32.3843498    
  0.217000008       7.25602150       32.3745499    
  0.218000010       7.28839111       32.3647499    
  0.219000012       7.32075119       32.3549500    
  0.220000014       7.35310125       32.3451500    
  0.221000016       7.38544130       32.3353500    
  0.222000018       7.41777229       32.3255501    
  0.223000005       7.45009279       32.3157501    
  0.224000007       7.48240376       32.3059502    
  0.225000009       7.51470470       32.2961502    
  0.226000011       7.54699612       32.2863503    
  0.227000013       7.57927752       32.2765503    
  0.228000015       7.61154938       32.2667503    
  0.229000017       7.64381123       32.2569504    
  0.230000004       7.67606354       32.2471504    
  0.231000006       7.70830536       32.2373505    
  0.232000008       7.74053812       32.2275505    
  0.233000010       7.77276039       32.2177505    
  0.234000012       7.80497408       32.2079506    
  0.235000014       7.83717728       32.1981506    
  0.236000016       7.86937046       32.1883507    
  0.237000018       7.90155363       32.1785507    
  0.238000005       7.93372726       32.1687508    
  0.239000008       7.96589136       32.1589508    
  0.240000010       7.99804497       32.1491508    
  0.241000012       8.03019047       32.1393509    
  0.242000014       8.06232452       32.1295509    
  0.243000016       8.09444904       32.1197510    
  0.244000018       8.12656403       32.1099510    
  0.245000005       8.15866947       32.1001511    
  0.246000007       8.19076443       32.0903511    
  0.247000009       8.22284985       32.0805511    
  0.248000011       8.25492573       32.0707512    
  0.249000013       8.28699207       32.0609512    
  0.250000000       8.31904793       32.0511513    
  0.251000017       8.35109329       32.0413513    
  0.252000004       8.38312912       32.0315514    
  0.253000021       8.41515636       32.0217514    
  0.254000008       8.44717216       32.0119514    
  0.255000025       8.47917938       32.0021515    
  0.256000012       8.51117516       31.9923496    
  0.256999999       8.54316235       31.9825497    
  0.258000016       8.57514000       31.9727497    
  0.259000003       8.60710716       31.9629498    
  0.260000020       8.63906479       31.9531498    
  0.261000007       8.67101288       31.9433498    
  0.262000024       8.70295048       31.9335499    
  0.263000011       8.73487949       31.9237499    
  0.263999999       8.76679707       31.9139500    
  0.265000015       8.79870605       31.9041500    
  0.266000003       8.83060551       31.8943501    
  0.267000020       8.86249352       31.8845501    
  0.268000007       8.89437294       31.8747501    
  0.269000024       8.92624187       31.8649502    
  0.270000011       8.95810223       31.8551502    
  0.271000028       8.98995209       31.8453503    
  0.272000015       9.02179146       31.8355503    
  0.273000002       9.05362225       31.8257504    
  0.274000019       9.08544159       31.8159504    
  0.275000006       9.11725330       31.8061504    
  0.276000023       9.14905453       31.7963505    
  0.277000010       9.18084431       31.7865505    
  0.278000027       9.21262646       31.7767506    
  0.279000014       9.24439716       31.7669506    
  0.280000001       9.27615929       31.7571507    
  0.281000018       9.30791092       31.7473507    
  0.282000005       9.33965206       31.7375507    
  0.283000022       9.37138557       31.7277508    
  0.284000009       9.40310669       31.7179508    
  0.285000026       9.43482018       31.7081509    
  0.286000013       9.46652317       31.6983509    
  0.287000000       9.49821568       31.6885509    
  0.288000017       9.52989864       31.6787510    
  0.289000005       9.56157303       31.6689510    
  0.290000021       9.59323597       31.6591511    
  0.291000009       9.62489033       31.6493511    
  0.292000026       9.65653324       31.6395512    
  0.293000013       9.68816853       31.6297512    
  0.294000000       9.71979332       31.6199512    
  0.295000017       9.75140667       31.6101513    
  0.296000004       9.78301239       31.6003513    
  0.297000021       9.81460667       31.5905514    
  0.298000008       9.84619236       31.5807514    
  0.299000025       9.87776756       31.5709515    
  0.300000012       9.90933323       31.5611515    
  0.301000029       9.94088936       31.5513515    
  0.302000016       9.97243500       31.5415516    
  0.303000003       10.0039711       31.5317516    
  0.304000020       10.0354977       31.5219517    
  0.305000007       10.0670137       31.5121517    
  0.306000024       10.0985212       31.5023518    
  0.307000011       10.1300173       31.4925518    
  0.308000028       10.1615047       31.4827518    
  0.309000015       10.1929827       31.4729519    
  0.310000002       10.2244501       31.4631519    
  0.311000019       10.2559080       31.4533520    
  0.312000006       10.2873554       31.4435520    
  0.313000023       10.3187943       31.4337521    
  0.314000010       10.3502226       31.4239521    
  0.315000027       10.3816414       31.4141521    
  0.316000015       10.4130497       31.4043522    
  0.317000002       10.4444485       31.3945522    
  0.318000019       10.4758377       31.3847523    
  0.319000006       10.5072174       31.3749523    
  0.320000023       10.5385866       31.3651524    
  0.321000010       10.5699472       31.3553524    
  0.322000027       10.6012974       31.3455524    
  0.323000014       10.6326370       31.3357525    
  0.324000001       10.6639681       31.3259525    
  0.325000018       10.6952877       31.3161526    
  0.326000005       10.7265987       31.3063526    
  0.327000022       10.7579002       31.2965527    
  0.328000009       10.7891912       31.2867527    
  0.329000026       10.8204727       31.2769527    
  0.330000013       10.8517437       31.2671528    
  0.331000030       10.8830061       31.2573528    
  0.332000017       10.9142590       31.2475529    
  0.333000004       10.9455004       31.2377529    
  0.334000021       10.9767332       31.2279530    
  0.335000008       11.0079546       31.2181530    
  0.336000025       11.0391684       31.2083530    
  0.337000012       11.0703716       31.1985531    
  0.338000029       11.1015644       31.1887531    
  0.339000016       11.1327477       31.1789532    
  0.340000004       11.1639214       31.1691532    
  0.341000021       11.1950855       31.1593533    
  0.342000008       11.2262392       31.1495533    
  0.343000025       11.2573833       31.1397533    
  0.344000012       11.2885180       31.1299534    
  0.345000029       11.3196421       31.1201534    
  0.346000016       11.3507576       31.1103535    
  0.347000003       11.3818626       31.1005535    
  0.348000020       11.4129572       31.0907536    
  0.349000007       11.4440432       31.0809536    
  0.350000024       11.4751177       31.0711536    
  0.351000011       11.5061846       31.0613537    
  0.352000028       11.5372410       31.0515537    
  0.353000015       11.5682859       31.0417538    
  0.354000002       11.5993233       31.0319538    
  0.355000019       11.6303501       31.0221539    
  0.356000006       11.6613665       31.0123539    
  0.357000023       11.6923733       31.0025539    
  0.358000010       11.7233706       30.9927540    
  0.359000027       11.7543583       30.9829540    
  0.360000014       11.7853365       30.9731541    
  0.361000031       11.8163033       30.9633541    
  0.362000018       11.8472614       30.9535542    
  0.363000005       11.8782091       30.9437542    
  0.364000022       11.9091482       30.9339542    
  0.365000010       11.9400768       30.9241543    
  0.366000026       11.9709949       30.9143543    
  0.367000014       12.0019045       30.9045544    
  0.368000031       12.0328035       30.8947544    
  0.369000018       12.0636930       30.8849545    
  0.370000005       12.0945730       30.8751545    
  0.371000022       12.1254425       30.8653545    
  0.372000009       12.1563025       30.8555546    
  0.373000026       12.1871529       30.8457546    
  0.374000013       12.2179928       30.8359547    
  0.375000030       12.2488241       30.8261547    
  0.376000017       12.2796440       30.8163548    
  0.377000004       12.3104553       30.8065548    
  0.378000021       12.3412561       30.7967548    
  0.379000008       12.3720484       30.7869549    
  0.380000025       12.4028301       30.7771549    
  0.381000012       12.4336014       30.7673550    
  0.382000029       12.4643641       30.7575550    
  0.383000016       12.4951153       30.7477551    
  0.384000003       12.5258579       30.7379551    
  0.385000020       12.5565910       30.7281551    
  0.386000007       12.5873137       30.7183552    
  0.387000024       12.6180267       30.7085552    
  0.388000011       12.6487303       30.6987553    
  0.389000028       12.6794233       30.6889553    
  0.390000015       12.7101068       30.6791553    
  0.391000032       12.7407808       30.6693554    
  0.392000020       12.7714453       30.6595554    
  0.393000007       12.8020992       30.6497555    
  0.394000024       12.8327436       30.6399555    
  0.395000011       12.8633785       30.6301556    
  0.396000028       12.8940029       30.6203556    
  0.397000015       12.9246178       30.6105556    
  0.398000032       12.9552231       30.6007557    
  0.399000019       12.9858179       30.5909557    
  0.400000006       13.0164042       30.5811558    
  0.401000023       13.0469799       30.5713558    
  0.402000010       13.0775461       30.5615559    
  0.403000027       13.1081028       30.5517559    
  0.404000014       13.1386480       30.5419559    
  0.405000031       13.1691856       30.5321560    
  0.406000018       13.1997118       30.5223560    
  0.407000005       13.2302294       30.5125561    
  0.408000022       13.2607365       30.5027561    
  0.409000009       13.2912331       30.4929562    
  0.410000026       13.3217211       30.4831562    
  0.411000013       13.3521986       30.4733562    
  0.412000030       13.3826666       30.4635563    
  0.413000017       13.4131260       30.4537563    
  0.414000034       13.4435730       30.4439564    
  0.415000021       13.4740124       30.4341564    
  0.416000009       13.5044403       30.4243565    
  0.417000026       13.5348597       30.4145565    
  0.418000013       13.5652695       30.4047565    
  0.419000030       13.5956688       30.3949566    
  0.420000017       13.6260586       30.3851566    
  0.421000034       13.6564388       30.3753567    
  0.422000021       13.6868076       30.3655567    
  0.423000008       13.7171688       30.3557568    
  0.424000025       13.7475185       30.3459568    
  0.425000012       13.7778597       30.3361568    
  0.426000029       13.8081903       30.3263569    
  0.427000016       13.8385115       30.3165569    
  0.428000033       13.8688231       30.3067570    
  0.429000020       13.8991232       30.2969570    
  0.430000007       13.9294157       30.2871571    
  0.431000024       13.9596977       30.2773571    
  0.432000011       13.9899693       30.2675571    
  0.433000028       14.0202312       30.2577572    
  0.434000015       14.0504837       30.2479572    
  0.435000032       14.0807266       30.2381573    
  0.436000019       14.1109600       30.2283573    
  0.437000006       14.1411819       30.2185574    
  0.438000023       14.1713953       30.2087574    
  0.439000010       14.2015982       30.1989574    
  0.440000027       14.2317924       30.1891575    
  0.441000015       14.2619762       30.1793575    
  0.442000031       14.2921505       30.1695576    
  0.443000019       14.3223152       30.1597576    
  0.444000036       14.3524685       30.1499577    
  0.445000023       14.3826132       30.1401577    
  0.446000010       14.4127483       30.1303577    
  0.447000027       14.4428730       30.1205578    
  0.448000014       14.4729891       30.1107578    
  0.449000031       14.5030947       30.1009579    
  0.450000018       14.5331898       30.0911579    
  0.451000035       14.5632753       30.0813580    
  0.452000022       14.5933514       30.0715580    
  0.453000009       14.6234179       30.0617580    
  0.454000026       14.6534748       30.0519581    
  0.455000013       14.6835203       30.0421581    
  0.456000030       14.7135582       30.0323582    
  0.457000017       14.7435846       30.0225582    
  0.458000034       14.7736015       30.0127583    
  0.459000021       14.8036098       30.0029583    
  0.460000008       14.8336067       29.9931583    
  0.461000025       14.8635950       29.9833584    
  0.462000012       14.8935719       29.9735584    
  0.463000029       14.9235411       29.9637585    
  0.464000016       14.9534998       29.9539585    
  0.465000033       14.9834480       29.9441586    
  0.466000021       15.0133858       29.9343586    
  0.467000008       15.0433159       29.9245586    
  0.468000025       15.0732346       29.9147587    
  0.469000012       15.1031437       29.9049587    
  0.470000029       15.1330452       29.8951588    
  0.471000016       15.1629343       29.8853588    
  0.472000033       15.1928139       29.8755589    
  0.473000020       15.2226849       29.8657589    
  0.474000037       15.2525444       29.8559589    
  0.475000024       15.2823944       29.8461590    
  0.476000011       15.3122349       29.8363590    
  0.477000028       15.3420677       29.8265591    
  0.478000015       15.3718882       29.8167591    
  0.479000032       15.4016991       29.8069592    
  0.480000019       15.4315014       29.7971592    
  0.481000036       15.4612932       29.7873592    
  0.482000023       15.4910746       29.7775593    
  0.483000010       15.5208483       29.7677593    
  0.484000027       15.5506096       29.7579594    
  0.485000014       15.5803623       29.7481594    
  0.486000031       15.6101046       29.7383595    
  0.487000018       15.6398382       29.7285595    
  0.488000035       15.6695614       29.7187595    
  0.489000022       15.6992741       29.7089596    
  0.490000010       15.7289791       29.6991596    
  0.491000026       15.7586727       29.6893597    
  0.492000014       15.7883558       29.6795597    
  0.493000031       15.8180313       29.6697598    
  0.494000018       15.8476954       29.6599598    
  0.495000035       15.8773489       29.6501598    
  0.496000022       15.9069939       29.6403599    
  0.497000009       15.9366302       29.6305599    
  0.498000026       15.9662542       29.6207600    
  0.499000013       15.9958687       29.6109600    
  0.500000000       16.0254765       29.6011600    
  0.501000047       16.0550728       29.5913601    
  0.502000034       16.0846596       29.5815601    
  0.503000021       16.1142349       29.5717602    
  0.504000008       16.1438007       29.5619602    
  0.504999995       16.1733589       29.5521603    
  0.506000042       16.2029037       29.5423603    
  0.507000029       16.2324409       29.5325603    
  0.508000016       16.2619686       29.5227604    
  0.509000003       16.2914867       29.5129604    
  0.510000050       16.3209934       29.5031605    
  0.511000037       16.3504925       29.4933605    
  0.512000024       16.3799801       29.4835606    
  0.513000011       16.4094582       29.4737606    
  0.513999999       16.4389248       29.4639606    
  0.515000045       16.4683857       29.4541607    
  0.516000032       16.4978333       29.4443607    
  0.517000020       16.5272713       29.4345608    
  0.518000007       16.5567017       29.4247608    
  0.519000053       16.5861206       29.4149609    
  0.520000041       16.6155300       29.4051609    
  0.521000028       16.6449318       29.3953609    
  0.522000015       16.6743202       29.3855610    
  0.523000002       16.7037010       29.3757610    
  0.524000049       16.7330723       29.3659611    
  0.525000036       16.7624321       29.3561611    
  0.526000023       16.7917824       29.3463612    
  0.527000010       16.8211231       29.3365612    
  0.527999997       16.8504562       29.3267612    
  0.529000044       16.8797760       29.3169613    
  0.530000031       16.9090881       29.3071613    
  0.531000018       16.9383907       29.2973614    
  0.532000005       16.9676819       29.2875614    
  0.533000052       16.9969635       29.2777615    
  0.534000039       17.0262375       29.2679615    
  0.535000026       17.0555000       29.2581615    
  0.536000013       17.0847511       29.2483616    
  0.537000000       17.1139946       29.2385616    
  0.538000047       17.1432285       29.2287617    
  0.539000034       17.1724510       29.2189617    
  0.540000021       17.2016640       29.2091618    
  0.541000009       17.2308693       29.1993618    
  0.542000055       17.2600632       29.1895618    
  0.543000042       17.2892475       29.1797619    
  0.544000030       17.3184223       29.1699619    
  0.545000017       17.3475876       29.1601620    
  0.546000004       17.3767414       29.1503620    
  0.547000051       17.4058857       29.1405621    
  0.548000038       17.4350224       29.1307621    
  0.549000025       17.4641457       29.1209621    
  0.550000012       17.4932613       29.1111622    
  0.550999999       17.5223694       29.1013622    
  0.552000046       17.5514641       29.0915623    
  0.553000033       17.5805492       29.0817623    
  0.554000020       17.6096268       29.0719624    
  0.555000007       17.6386929       29.0621624    
  0.556000054       17.6677494       29.0523624    
  0.557000041       17.6967983       29.0425625    
  0.558000028       17.7258339       29.0327625    
  0.559000015       17.7548618       29.0229626    
  0.560000002       17.7838783       29.0131626    
  0.561000049       17.8128872       29.0033627    
  0.562000036       17.8418846       28.9935627    
  0.563000023       17.8708725       28.9837627    
  0.564000010       17.8998528       28.9739628    
  0.564999998       17.9288216       28.9641628    
  0.566000044       17.9577789       28.9543629    
  0.567000031       17.9867287       28.9445629    
  0.568000019       18.0156689       28.9347630    
  0.569000006       18.0445976       28.9249630    
  0.570000052       18.0735168       28.9151630    
  0.571000040       18.1024265       28.9053631    
  0.572000027       18.1313267       28.8955631    
  0.573000014       18.1602154       28.8857632    
  0.574000001       18.1890984       28.8759632    
  0.575000048       18.2179680       28.8661633    
  0.576000035       18.2468281       28.8563633    
  0.577000022       18.2756805       28.8465633    
  0.578000009       18.3045216       28.8367634    
  0.579000056       18.3333511       28.8269634    
  0.580000043       18.3621731       28.8171635    
  0.581000030       18.3909855       28.8073635    
  0.582000017       18.4197884       28.7975636    
  0.583000004       18.4485798       28.7877636    
  0.584000051       18.4773636       28.7779636    
  0.585000038       18.5061340       28.7681637    
  0.586000025       18.5348969       28.7583637    
  0.587000012       18.5636520       28.7485638    
  0.588000000       18.5923939       28.7387638    
  0.589000046       18.6211281       28.7289639    
  0.590000033       18.6498528       28.7191639    
  0.591000021       18.6785660       28.7093639    
  0.592000008       18.7072678       28.6995640    
  0.593000054       18.7359619       28.6897640    
  0.594000041       18.7646484       28.6799641    
  0.595000029       18.7933216       28.6701641    
  0.596000016       18.8219872       28.6603642    
  0.597000003       18.8506432       28.6505642    
  0.598000050       18.8792877       28.6407642    
  0.599000037       18.9079227       28.6309643    
  0.600000024       18.9365501       28.6211643    
  0.601000011       18.9651642       28.6113644    
  0.602000058       18.9937706       28.6015644    
  0.603000045       19.0223656       28.5917645    
  0.604000032       19.0509529       28.5819645    
  0.605000019       19.0795288       28.5721645    
  0.606000006       19.1080952       28.5623646    
  0.607000053       19.1366539       28.5525646    
  0.608000040       19.1652012       28.5427647    
  0.609000027       19.1937370       28.5329647    
  0.610000014       19.2222672       28.5231647    
  0.611000001       19.2507839       28.5133648    
  0.612000048       19.2792912       28.5035648    
  0.613000035       19.3077908       28.4937649    
  0.614000022       19.3362789       28.4839649    
  0.615000010       19.3647556       28.4741650    
  0.616000056       19.3932247       28.4643650    
  0.617000043       19.4216843       28.4545650    
  0.618000031       19.4501343       28.4447651    
  0.619000018       19.4785728       28.4349651    
  0.620000005       19.5070038       28.4251652    
  0.621000051       19.5354233       28.4153652    
  0.622000039       19.5638313       28.4055653    
  0.623000026       19.5922337       28.3957653    
  0.624000013       19.6206245       28.3859653    
  0.625000000       19.6490040       28.3761654    
  0.626000047       19.6773739       28.3663654    
  0.627000034       19.7057362       28.3565655    
  0.628000021       19.7340870       28.3467655    
  0.629000008       19.7624283       28.3369656    
  0.630000055       19.7907600       28.3271656    
  0.631000042       19.8190823       28.3173656    
  0.632000029       19.8473930       28.3075657    
  0.633000016       19.8756962       28.2977657    
  0.634000003       19.9039879       28.2879658    
  0.635000050       19.9322701       28.2781658    
  0.636000037       19.9605427       28.2683659    
  0.637000024       19.9888077       28.2585659    
  0.638000011       20.0170593       28.2487659    
  0.639000058       20.0453033       28.2389660    
  0.640000045       20.0735378       28.2291660    
  0.641000032       20.1017609       28.2193661    
  0.642000020       20.1299744       28.2095661    
  0.643000007       20.1581802       28.1997662    
  0.644000053       20.1863747       28.1899662    
  0.645000041       20.2145576       28.1801662    
  0.646000028       20.2427349       28.1703663    
  0.647000015       20.2708988       28.1605663    
  0.648000002       20.2990532       28.1507664    
  0.649000049       20.3271980       28.1409664    
  0.650000036       20.3553352       28.1311665    
  0.651000023       20.3834610       28.1213665    
  0.652000010       20.4115753       28.1115665    
  0.653000057       20.4396839       28.1017666    
  0.654000044       20.4677792       28.0919666    
  0.655000031       20.4958649       28.0821667    
  0.656000018       20.5239429       28.0723667    
  0.657000005       20.5520096       28.0625668    
  0.658000052       20.5800667       28.0527668    
  0.659000039       20.6081123       28.0429668    
  0.660000026       20.6361523       28.0331669    
  0.661000013       20.6641788       28.0233669    
  0.662000060       20.6921978       28.0135670    
  0.663000047       20.7202072       28.0037670    
  0.664000034       20.7482052       27.9939671    
  0.665000021       20.7761917       27.9841671    
  0.666000009       20.8041725       27.9743671    
  0.667000055       20.8321419       27.9645672    
  0.668000042       20.8600998       27.9547672    
  0.669000030       20.8880482       27.9449673    
  0.670000017       20.9159889       27.9351673    
  0.671000004       20.9439182       27.9253674    
  0.672000051       20.9718380       27.9155674    
  0.673000038       20.9997501       27.9057674    
  0.674000025       21.0276489       27.8959675    
  0.675000012       21.0555401       27.8861675    
  0.676000059       21.0834217       27.8763676    
  0.677000046       21.1112919       27.8665676    
  0.678000033       21.1391525       27.8567677    
  0.679000020       21.1670055       27.8469677    
  0.680000007       21.1948471       27.8371677    
  0.681000054       21.2226772       27.8273678    
  0.682000041       21.2504997       27.8175678    
  0.683000028       21.2783127       27.8077679    
  0.684000015       21.3061142       27.7979679    
  0.685000062       21.3339062       27.7881680    
  0.686000049       21.3616905       27.7783680    
  0.687000036       21.3894634       27.7685680    
  0.688000023       21.4172249       27.7587681    
  0.689000010       21.4449806       27.7489681    
  0.690000057       21.4727230       27.7391682    
  0.691000044       21.5004578       27.7293682    
  0.692000031       21.5281811       27.7195683    
  0.693000019       21.5558968       27.7097683    
  0.694000006       21.5835991       27.6999683    
  0.695000052       21.6112938       27.6901684    
  0.696000040       21.6389809       27.6803684    
  0.697000027       21.6666546       27.6705685    
  0.698000014       21.6943188       27.6607685    
  0.699000061       21.7219753       27.6509686    
  0.700000048       21.7496204       27.6411686    
  0.701000035       21.7772560       27.6313686    
  0.702000022       21.8048820       27.6215687    
  0.703000009       21.8324986       27.6117687    
  0.704000056       21.8601055       27.6019688    
  0.705000043       21.8877010       27.5921688    
  0.706000030       21.9152889       27.5823689    
  0.707000017       21.9428654       27.5725689    
  0.708000004       21.9704323       27.5627689    
  0.709000051       21.9979916       27.5529690    
  0.710000038       22.0255375       27.5431690    
  0.711000025       22.0530758       27.5333691    
  0.712000012       22.0806046       27.5235691    
  0.713000059       22.1081219       27.5137691    
  0.714000046       22.1356297       27.5039692    
  0.715000033       22.1631279       27.4941692    
  0.716000021       22.1906185       27.4843693    
  0.717000008       22.2180977       27.4745693    
  0.718000054       22.2455654       27.4647694    
  0.719000041       22.2730255       27.4549694    
  0.720000029       22.3004761       27.4451694    
  0.721000016       22.3279152       27.4353695    
  0.722000062       22.3553467       27.4255695    
  0.723000050       22.3827648       27.4157696    
  0.724000037       22.4101753       27.4059696    
  0.725000024       22.4375763       27.3961697    
  0.726000011       22.4649677       27.3863697    
  0.727000058       22.4923477       27.3765697    
  0.728000045       22.5197182       27.3667698    
  0.729000032       22.5470810       27.3569698    
  0.730000019       22.5744324       27.3471699    
  0.731000006       22.6017742       27.3373699    
  0.732000053       22.6291065       27.3275700    
  0.733000040       22.6564293       27.3177700    
  0.734000027       22.6837406       27.3079700    
  0.735000014       22.7110424       27.2981701    
  0.736000061       22.7383366       27.2883701    
  0.737000048       22.7656193       27.2785702    
  0.738000035       22.7928925       27.2687702    
  0.739000022       22.8201561       27.2589703    
  0.740000010       22.8474102       27.2491703    
  0.741000056       22.8746529       27.2393703    
  0.742000043       22.9018879       27.2295704    
  0.743000031       22.9291115       27.2197704    
  0.744000018       22.9563255       27.2099705    
  0.745000064       22.9835320       27.2001705    
  0.746000051       23.0107269       27.1903706    
  0.747000039       23.0379105       27.1805706    
  0.748000026       23.0650845       27.1707706    
  0.749000013       23.0922527       27.1609707    
  0.750000060       23.1194077       27.1511707    
  0.751000047       23.1465530       27.1413708    
  0.752000034       23.1736889       27.1315708    
  0.753000021       23.2008152       27.1217709    
  0.754000008       23.2279320       27.1119709    
  0.755000055       23.2550392       27.1021709    
  0.756000042       23.2821350       27.0923710    
  0.757000029       23.3092213       27.0825710    
  0.758000016       23.3362980       27.0727711    
  0.759000063       23.3633671       27.0629711    
  0.760000050       23.3904247       27.0531712    
  0.761000037       23.4174709       27.0433712    
  0.762000024       23.4445114       27.0335712    
  0.763000011       23.4715385       27.0237713    
  0.764000058       23.4985561       27.0139713    
  0.765000045       23.5255661       27.0041714    
  0.766000032       23.5525646       26.9943714    
  0.767000020       23.5795536       26.9845715    
  0.768000007       23.6065311       26.9747715    
  0.769000053       23.6335030       26.9649715    
  0.770000041       23.6604614       26.9551716    
  0.771000028       23.6874104       26.9453716    
  0.772000015       23.7143517       26.9355717    
  0.773000062       23.7412815       26.9257717    
  0.774000049       23.7682018       26.9159718    
  0.775000036       23.7951126       26.9061718    
  0.776000023       23.8220139       26.8963718    
  0.777000010       23.8489037       26.8865719    
  0.778000057       23.8757858       26.8767719    
  0.779000044       23.9026585       26.8669720    
  0.780000031       23.9295197       26.8571720    
  0.781000018       23.9563694       26.8473721    
  0.782000065       23.9832134       26.8375721    
  0.783000052       24.0100441       26.8277721    
  0.784000039       24.0368671       26.8179722    
  0.785000026       24.0636806       26.8081722    
  0.786000013       24.0904827       26.7983723    
  0.787000060       24.1172752       26.7885723    
  0.788000047       24.1440601       26.7787724    
  0.789000034       24.1708336       26.7689724    
  0.790000021       24.1975956       26.7591724    
  0.791000009       24.2243500       26.7493725    
  0.792000055       24.2510948       26.7395725    
  0.793000042       24.2778282       26.7297726    
  0.794000030       24.3045521       26.7199726    
  0.795000017       24.3312683       26.7101727    
  0.796000063       24.3579712       26.7003727    
  0.797000051       24.3846664       26.6905727    
  0.798000038       24.4113541       26.6807728    
  0.799000025       24.4380283       26.6709728    
  0.800000012       24.4646931       26.6611729    
  0.801000059       24.4913483       26.6513729    
  0.802000046       24.5179958       26.6415730    
  0.803000033       24.5446320       26.6317730    
  0.804000020       24.5712566       26.6219730    
  0.805000067       24.5978756       26.6121731    
  0.806000054       24.6244812       26.6023731    
  0.807000041       24.6510773       26.5925732    
  0.808000028       24.6776657       26.5827732    
  0.809000015       24.7042427       26.5729733    
  0.810000062       24.7308102       26.5631733    
  0.811000049       24.7573700       26.5533733    
  0.812000036       24.7839165       26.5435734    
  0.813000023       24.8104553       26.5337734    
  0.814000010       24.8369827       26.5239735    
  0.815000057       24.8635025       26.5141735    
  0.816000044       24.8900108       26.5043736    
  0.817000031       24.9165096       26.4945736    
  0.818000019       24.9429989       26.4847736    
  0.819000065       24.9694786       26.4749737    
  0.820000052       24.9959469       26.4651737    
  0.821000040       25.0224075       26.4553738    
  0.822000027       25.0488586       26.4455738    
  0.823000014       25.0752983       26.4357738    
  0.824000061       25.1017265       26.4259739    
  0.825000048       25.1281490       26.4161739    
  0.826000035       25.1545601       26.4063740    
  0.827000022       25.1809597       26.3965740    
  0.828000069       25.2073536       26.3867741    
  0.829000056       25.2337341       26.3769741    
  0.830000043       25.2601051       26.3671741    
  0.831000030       25.2864685       26.3573742    
  0.832000017       25.3128185       26.3475742    
  0.833000064       25.3391609       26.3377743    
  0.834000051       25.3654938       26.3279743    
  0.835000038       25.3918171       26.3181744    
  0.836000025       25.4181290       26.3083744    
  0.837000012       25.4444313       26.2985744    
  0.838000059       25.4707260       26.2887745    
  0.839000046       25.4970093       26.2789745    
  0.840000033       25.5232811       26.2691746    
  0.841000021       25.5495472       26.2593746    
  0.842000067       25.5757999       26.2495747    
  0.843000054       25.6020432       26.2397747    
  0.844000041       25.6282806       26.2299747    
  0.845000029       25.6545048       26.2201748    
  0.846000016       25.6807175       26.2103748    
  0.847000062       25.7069225       26.2005749    
  0.848000050       25.7331200       26.1907749    
  0.849000037       25.7593040       26.1809750    
  0.850000024       25.7854786       26.1711750    
  0.851000011       25.8116455       26.1613750    
  0.852000058       25.8378010       26.1515751    
  0.853000045       25.8639469       26.1417751    
  0.854000032       25.8900852       26.1319752    
  0.855000019       25.9162121       26.1221752    
  0.856000066       25.9423275       26.1123753    
  0.857000053       25.9684334       26.1025753    
  0.858000040       25.9945316       26.0927753    
  0.859000027       26.0206184       26.0829754    
  0.860000014       26.0466957       26.0731754    
  0.861000061       26.0727654       26.0633755    
  0.862000048       26.0988235       26.0535755    
  0.863000035       26.1248703       26.0437756    
  0.864000022       26.1509094       26.0339756    
  0.865000069       26.1769390       26.0241756    
  0.866000056       26.2029572       26.0143757    
  0.867000043       26.2289658       26.0045757    
  0.868000031       26.2549648       25.9947758    
  0.869000018       26.2809544       25.9849758    
  0.870000064       26.3069344       25.9751759    
  0.871000051       26.3329048       25.9653759    
  0.872000039       26.3588638       25.9555759    
  0.873000026       26.3848133       25.9457760    
  0.874000013       26.4107552       25.9359760    
  0.875000060       26.4366856       25.9261761    
  0.876000047       26.4626064       25.9163761    
  0.877000034       26.4885178       25.9065762    
  0.878000021       26.5144196       25.8967762    
  0.879000068       26.5403099       25.8869762    
  0.880000055       26.5661907       25.8771763    
  0.881000042       26.5920639       25.8673763    
  0.882000029       26.6179256       25.8575764    
  0.883000016       26.6437778       25.8477764    
  0.884000063       26.6696205       25.8379765    
  0.885000050       26.6954536       25.8281765    
  0.886000037       26.7212753       25.8183765    
  0.887000024       26.7470894       25.8085766    
  0.888000071       26.7728920       25.7987766    
  0.889000058       26.7986851       25.7889767    
  0.890000045       26.8244686       25.7791767    
  0.891000032       26.8502426       25.7693768    
  0.892000020       26.8760071       25.7595768    
  0.893000066       26.9017601       25.7497768    
  0.894000053       26.9275055       25.7399769    
  0.895000041       26.9532394       25.7301769    
  0.896000028       26.9789639       25.7203770    
  0.897000015       27.0046806       25.7105770    
  0.898000062       27.0303860       25.7007771    
  0.899000049       27.0560799       25.6909771    
  0.900000036       27.0817642       25.6811771    
  0.901000023       27.1074429       25.6713772    
  0.902000070       27.1331081       25.6615772    
  0.903000057       27.1587639       25.6517773    
  0.904000044       27.1844120       25.6419773    
  0.905000031       27.2100487       25.6321774    
  0.906000018       27.2356739       25.6223774    
  0.907000065       27.2612915       25.6125774    
  0.908000052       27.2868996       25.6027775    
  0.909000039       27.3124962       25.5929775    
  0.910000026       27.3380852       25.5831776    
  0.911000073       27.3636627       25.5733776    
  0.912000060       27.3892288       25.5635777    
  0.913000047       27.4147873       25.5537777    
  0.914000034       27.4403362       25.5439777    
  0.915000021       27.4658737       25.5341778    
  0.916000068       27.4914036       25.5243778    
  0.917000055       27.5169239       25.5145779    
  0.918000042       27.5424328       25.5047779    
  0.919000030       27.5679321       25.4949780    
  0.920000017       27.5934219       25.4851780    
  0.921000063       27.6189003       25.4753780    
  0.922000051       27.6443710       25.4655781    
  0.923000038       27.6698303       25.4557781    
  0.924000025       27.6952820       25.4459782    
  0.925000072       27.7207222       25.4361782    
  0.926000059       27.7461529       25.4263783    
  0.927000046       27.7715759       25.4165783    
  0.928000033       27.7969856       25.4067783    
  0.929000020       27.8223858       25.3969784    
  0.930000067       27.8477783       25.3871784    
  0.931000054       27.8731575       25.3773785    
  0.932000041       27.8985329       25.3675785    
  0.933000028       27.9238949       25.3577785    
  0.934000015       27.9492474       25.3479786    
  0.935000062       27.9745903       25.3381786    
  0.936000049       27.9999218       25.3283787    
  0.937000036       28.0252438       25.3185787    
  0.938000023       28.0505600       25.3087788    
  0.939000070       28.0758629       25.2989788    
  0.940000057       28.1011562       25.2891788    
  0.941000044       28.1264400       25.2793789    
  0.942000031       28.1517124       25.2695789    
  0.943000019       28.1769772       25.2597790    
  0.944000065       28.2022305       25.2499790    
  0.945000052       28.2274780       25.2401791    
  0.946000040       28.2527122       25.2303791    
  0.947000027       28.2779369       25.2205791    
  0.948000073       28.3031521       25.2107792    
  0.949000061       28.3283577       25.2009792    
  0.950000048       28.3535519       25.1911793    
  0.951000035       28.3787365       25.1813793    
  0.952000022       28.4039154       25.1715794    
  0.953000069       28.4290810       25.1617794    
  0.954000056       28.4542389       25.1519794    
  0.955000043       28.4793835       25.1421795    
  0.956000030       28.5045204       25.1323795    
  0.957000017       28.5296478       25.1225796    
  0.958000064       28.5547676       25.1127796    
  0.959000051       28.5798740       25.1029797    
  0.960000038       28.6049709       25.0931797    
  0.961000025       28.6300583       25.0833797    
  0.962000072       28.6551361       25.0735798    
  0.963000059       28.6802025       25.0637798    
  0.964000046       28.7052612       25.0539799    
  0.965000033       28.7303123       25.0441799    
  0.966000021       28.7553520       25.0343800    
  0.967000067       28.7803802       25.0245800    
  0.968000054       28.8053989       25.0147800    
  0.969000041       28.8304062       25.0049801    
  0.970000029       28.8554058       24.9951801    
  0.971000075       28.8803997       24.9853802    
  0.972000062       28.9053783       24.9755802    
  0.973000050       28.9303474       24.9657803    
  0.974000037       28.9553089       24.9559803    
  0.975000024       28.9802589       24.9461803    
  0.976000071       29.0051994       24.9363804    
  0.977000058       29.0301285       24.9265804    
  0.978000045       29.0550537       24.9167805    
  0.979000032       29.0799637       24.9069805    
  0.980000019       29.1048660       24.8971806    
  0.981000066       29.1297569       24.8873806    
  0.982000053       29.1546383       24.8775806    
  0.983000040       29.1795101       24.8677807    
  0.984000027       29.2043724       24.8579807    
  0.985000074       29.2292290       24.8481808    
  0.986000061       29.2540703       24.8383808    
  0.987000048       29.2789021       24.8285809    
  0.988000035       29.3037262       24.8187809    
  0.989000022       29.3285370       24.8089809    
  0.990000069       29.3533401       24.7991810    
  0.991000056       29.3781376       24.7893810    
  0.992000043       29.4029217       24.7795811    
  0.993000031       29.4276962       24.7697811    
  0.994000018       29.4524593       24.7599812    
  0.995000064       29.4772129       24.7501812    
  0.996000051       29.5019569       24.7403812    
  0.997000039       29.5266914       24.7305813    
  0.998000026       29.5514202       24.7207813    
  0.999000072       29.5761356       24.7109814    
   1.00000000       29.6008396       24.7011814    
   1.00100005       29.6255398       24.6913815    
   1.00200009       29.6502247       24.6815815    
   1.00300002       29.6749039       24.6717815    
   1.00400007       29.6995735       24.6619816    
   1.00500000       29.7242298       24.6521816    
   1.00600004       29.7488804       24.6423817    
   1.00700009       29.7735214       24.6325817    
   1.00800002       29.7981472       24.6227818    
   1.00900006       29.8227673       24.6129818    
   1.00999999       29.8473778       24.6031818    
   1.01100004       29.8719788       24.5933819    
   1.01200008       29.8965683       24.5835819    
   1.01300001       29.9211483       24.5737820    
   1.01400006       29.9457207       24.5639820    
   1.01500010       29.9702797       24.5541821    
   1.01600003       29.9948311       24.5443821    
   1.01700008       30.0193729       24.5345821    
   1.01800001       30.0439014       24.5247822    
   1.01900005       30.0684242       24.5149822    
   1.02000010       30.0929375       24.5051823    
   1.02100003       30.1174355       24.4953823    
   1.02200007       30.1419296       24.4855824    
   1.02300000       30.1664124       24.4757824    
   1.02400005       30.1908836       24.4659824    
   1.02500010       30.2153473       24.4561825    
   1.02600002       30.2398014       24.4463825    
   1.02700007       30.2642441       24.4365826    
   1.02800000       30.2886753       24.4267826    
   1.02900004       30.3131008       24.4169827    
   1.03000009       30.3375149       24.4071827    
   1.03100002       30.3619156       24.3973827    
   1.03200006       30.3863125       24.3875828    
   1.03299999       30.4106979       24.3777828    
   1.03400004       30.4350700       24.3679829    
   1.03500009       30.4594345       24.3581829    
   1.03600001       30.4837914       24.3483829    
   1.03700006       30.5081329       24.3385830    
   1.03800011       30.5324707       24.3287830    
   1.03900003       30.5567970       24.3189831    
   1.04000008       30.5811138       24.3091831    
   1.04100001       30.6054173       24.2993832    
   1.04200006       30.6297150       24.2895832    
   1.04300010       30.6540012       24.2797832    
   1.04400003       30.6782761       24.2699833    
   1.04500008       30.7025433       24.2601833    
   1.04600000       30.7268009       24.2503834    
   1.04700005       30.7510452       24.2405834    
   1.04800010       30.7752838       24.2307835    
   1.04900002       30.7995129       24.2209835    
   1.05000007       30.8237286       24.2111835    
   1.05100000       30.8479366       24.2013836    
   1.05200005       30.8721371       24.1915836    
   1.05300009       30.8963261       24.1817837    
   1.05400002       30.9205017       24.1719837    
   1.05500007       30.9446716       24.1621838    
   1.05599999       30.9688320       24.1523838    
   1.05700004       30.9929771       24.1425838    
   1.05800009       31.0171185       24.1327839    
   1.05900002       31.0412483       24.1229839    
   1.06000006       31.0653667       24.1131840    
   1.06100011       31.0894775       24.1033840    
   1.06200004       31.1135788       24.0935841    
   1.06300008       31.1376667       24.0837841    
   1.06400001       31.1617470       24.0739841    
   1.06500006       31.1858196       24.0641842    
   1.06600010       31.2098770       24.0543842    
   1.06700003       31.2339306       24.0445843    
   1.06800008       31.2579727       24.0347843    
   1.06900001       31.2820053       24.0249844    
   1.07000005       31.3060246       24.0151844    
   1.07100010       31.3300381       24.0053844    
   1.07200003       31.3540421       23.9955845    
   1.07300007       31.3780308       23.9857845    
   1.07400000       31.4020138       23.9759846    
   1.07500005       31.4259872       23.9661846    
   1.07600009       31.4499474       23.9563847    
   1.07700002       31.4739037       23.9465847    
   1.07800007       31.4978466       23.9367847    
   1.07900000       31.5217781       23.9269848    
   1.08000004       31.5457039       23.9171848    
   1.08100009       31.5696182       23.9073849    
   1.08200002       31.5935230       23.8975849    
   1.08300006       31.6174145       23.8877850    
   1.08400011       31.6413002       23.8779850    
   1.08500004       31.6651764       23.8681850    
   1.08600008       31.6890392       23.8583851    
   1.08700001       31.7128944       23.8485851    
   1.08800006       31.7367420       23.8387852    
   1.08900011       31.7605743       23.8289852    
   1.09000003       31.7844009       23.8191853    
   1.09100008       31.8082180       23.8093853    
   1.09200001       31.8320217       23.7995853    
   1.09300005       31.8558197       23.7897854    
   1.09400010       31.8796062       23.7799854    
   1.09500003       31.9033852       23.7701855    
   1.09600008       31.9271488       23.7603855    
   1.09700000       31.9509068       23.7505856    
   1.09800005       31.9746552       23.7407856    
   1.09900010       31.9983902       23.7309856    
   1.10000002       32.0221176       23.7211857    
   1.10100007       32.0458374       23.7113857    
   1.10200000       32.0695457       23.7015858    
   1.10300004       32.0932426       23.6917858    
   1.10400009       32.1169319       23.6819859    
   1.10500002       32.1406097       23.6721859    
   1.10600007       32.1642799       23.6623859    
   1.10699999       32.1879387       23.6525860    
   1.10800004       32.2115860       23.6427860    
   1.10900009       32.2352257       23.6329861    
   1.11000001       32.2588577       23.6231861    
   1.11100006       32.2824783       23.6133862    
   1.11200011       32.3060875       23.6035862    
   1.11300004       32.3296890       23.5937862    
   1.11400008       32.3532791       23.5839863    
   1.11500001       32.3768578       23.5741863    
   1.11600006       32.4004288       23.5643864    
   1.11700010       32.4239922       23.5545864    
   1.11800003       32.4475403       23.5447865    
   1.11900008       32.4710846       23.5349865    
   1.12000000       32.4946175       23.5251865    
   1.12100005       32.5181351       23.5153866    
   1.12200010       32.5416489       23.5055866    
   1.12300003       32.5651512       23.4957867    
   1.12400007       32.5886459       23.4859867    
   1.12500000       32.6121254       23.4761868    
   1.12600005       32.6356010       23.4663868    
   1.12700009       32.6590652       23.4565868    
   1.12800002       32.6825142       23.4467869    
   1.12900007       32.7059593       23.4369869    
   1.13000000       32.7293930       23.4271870    
   1.13100004       32.7528152       23.4173870    
   1.13200009       32.7762299       23.4075871    
   1.13300002       32.7996368       23.3977871    
   1.13400006       32.8230286       23.3879871    
   1.13500011       32.8464127       23.3781872    
   1.13600004       32.8697891       23.3683872    
   1.13700008       32.8931580       23.3585873    
   1.13800001       32.9165115       23.3487873    
   1.13900006       32.9398575       23.3389874    
   1.14000010       32.9631920       23.3291874    
   1.14100003       32.9865150       23.3193874    
   1.14200008       33.0098343       23.3095875    
   1.14300001       33.0331421       23.2997875    
   1.14400005       33.0564346       23.2899876    
   1.14500010       33.0797234       23.2801876    
   1.14600003       33.1030006       23.2703876    
   1.14700007       33.1262665       23.2605877    
   1.14800000       33.1495247       23.2507877    
   1.14900005       33.1727715       23.2409878    
   1.15000010       33.1960068       23.2311878    
   1.15100002       33.2192383       23.2213879    
   1.15200007       33.2424545       23.2115879    
   1.15300000       33.2656670       23.2017879    
   1.15400004       33.2888603       23.1919880    
   1.15500009       33.3120499       23.1821880    
   1.15600002       33.3352318       23.1723881    
   1.15700006       33.3583984       23.1625881    
   1.15800011       33.3815575       23.1527882    
   1.15900004       33.4047089       23.1429882    
   1.16000009       33.4278450       23.1331882    
   1.16100001       33.4509773       23.1233883    
   1.16200006       33.4740982       23.1135883    
   1.16300011       33.4972076       23.1037884    
   1.16400003       33.5203094       23.0939884    
   1.16500008       33.5433998       23.0841885    
   1.16600001       33.5664825       23.0743885    
   1.16700006       33.5895500       23.0645885    
   1.16800010       33.6126137       23.0547886    
   1.16900003       33.6356659       23.0449886    
   1.17000008       33.6587029       23.0351887    
   1.17100000       33.6817360       23.0253887    
   1.17200005       33.7047615       23.0155888    
   1.17300010       33.7277718       23.0057888    
   1.17400002       33.7507744       22.9959888    
   1.17500007       33.7737694       22.9861889    
   1.17600000       33.7967491       22.9763889    
   1.17700005       33.8197212       22.9665890    
   1.17800009       33.8426857       22.9567890    
   1.17900002       33.8656425       22.9469891    
   1.18000007       33.8885841       22.9371891    
   1.18100011       33.9115181       22.9273891    
   1.18200004       33.9344444       22.9175892    
   1.18300009       33.9573555       22.9077892    
   1.18400002       33.9802589       22.8979893    
   1.18500006       34.0031548       22.8881893    
   1.18600011       34.0260391       22.8783894    
   1.18700004       34.0489159       22.8685894    
   1.18800008       34.0717812       22.8587894    
   1.18900001       34.0946350       22.8489895    
   1.19000006       34.1174812       22.8391895    
   1.19100010       34.1403198       22.8293896    
   1.19200003       34.1631470       22.8195896    
   1.19300008       34.1859589       22.8097897    
   1.19400001       34.2087669       22.7999897    
   1.19500005       34.2315636       22.7901897    
   1.19600010       34.2543488       22.7803898    
   1.19700003       34.2771263       22.7705898    
   1.19800007       34.2998962       22.7607899    
   1.19900000       34.3226509       22.7509899    
   1.20000005       34.3453979       22.7411900    
   1.20100009       34.3681374       22.7313900    
   1.20200002       34.3908653       22.7215900    
   1.20300007       34.4135818       22.7117901    
   1.20400012       34.4362946       22.7019901    
   1.20500004       34.4589882       22.6921902    
   1.20600009       34.4816780       22.6823902    
   1.20700002       34.5043602       22.6725903    
   1.20800006       34.5270309       22.6627903    
   1.20900011       34.5496864       22.6529903    
   1.21000004       34.5723381       22.6431904    
   1.21100008       34.5949783       22.6333904    
   1.21200001       34.6176071       22.6235905    
   1.21300006       34.6402283       22.6137905    
   1.21400011       34.6628380       22.6039906    
   1.21500003       34.6854362       22.5941906    
   1.21600008       34.7080307       22.5843906    
   1.21700001       34.7306137       22.5745907    
   1.21800005       34.7531815       22.5647907    
   1.21900010       34.7757416       22.5549908    
   1.22000003       34.7982941       22.5451908    
   1.22100008       34.8208389       22.5353909    
   1.22200000       34.8433685       22.5255909    
   1.22300005       34.8658905       22.5157909    
   1.22400010       34.8884048       22.5059910    
   1.22500002       34.9109039       22.4961910    
   1.22600007       34.9333992       22.4863911    
   1.22700012       34.9558830       22.4765911    
   1.22800004       34.9783554       22.4667912    
   1.22900009       35.0008202       22.4569912    
   1.23000002       35.0232735       22.4471912    
   1.23100007       35.0457153       22.4373913    
   1.23200011       35.0681496       22.4275913    
   1.23300004       35.0905762       22.4177914    
   1.23400009       35.1129913       22.4079914    
   1.23500001       35.1353951       22.3981915    
   1.23600006       35.1577911       22.3883915    
   1.23700011       35.1801758       22.3785915    
   1.23800004       35.2025490       22.3687916    
   1.23900008       35.2249146       22.3589916    
   1.24000001       35.2472725       22.3491917    
   1.24100006       35.2696152       22.3393917    
   1.24200010       35.2919540       22.3295918    
   1.24300003       35.3142815       22.3197918    
   1.24400008       35.3365936       22.3099918    
   1.24500000       35.3589020       22.3001919    
   1.24600005       35.3812027       22.2903919    
   1.24700010       35.4034843       22.2805920    
   1.24800003       35.4257622       22.2707920    
   1.24900007       35.4480324       22.2609921    
   1.25000000       35.4702911       22.2511921    
   1.25100005       35.4925385       22.2413921    
   1.25200009       35.5147743       22.2315922    
   1.25300002       35.5370064       22.2217922    
   1.25400007       35.5592194       22.2119923    
   1.25500011       35.5814323       22.2021923    
   1.25600004       35.6036301       22.1923923    
   1.25700009       35.6258163       22.1825924    
   1.25800002       35.6479988       22.1727924    
   1.25900006       35.6701698       22.1629925    
   1.26000011       35.6923256       22.1531925    
   1.26100004       35.7144775       22.1433926    
   1.26200008       35.7366180       22.1335926    
   1.26300001       35.7587509       22.1237926    
   1.26400006       35.7808685       22.1139927    
   1.26500010       35.8029785       22.1041927    
   1.26600003       35.8250809       22.0943928    
   1.26700008       35.8471718       22.0845928    
   1.26800001       35.8692513       22.0747929    
   1.26900005       35.8913269       22.0649929    
   1.27000010       35.9133835       22.0551929    
   1.27100003       35.9354362       22.0453930    
   1.27200007       35.9574814       22.0355930    
   1.27300000       35.9795113       22.0257931    
   1.27400005       36.0015335       22.0159931    
   1.27500010       36.0235481       22.0061932    
   1.27600002       36.0455513       21.9963932    
   1.27700007       36.0675430       21.9865932    
   1.27800012       36.0895271       21.9767933    
   1.27900004       36.1115036       21.9669933    
   1.28000009       36.1334610       21.9571934    
   1.28100002       36.1554184       21.9473934    
   1.28200006       36.1773643       21.9375935    
   1.28300011       36.1992950       21.9277935    
   1.28400004       36.2212219       21.9179935    
   1.28500009       36.2431374       21.9081936    
   1.28600001       36.2650375       21.8983936    
   1.28700006       36.2869339       21.8885937    
   1.28800011       36.3088226       21.8787937    
   1.28900003       36.3306961       21.8689938    
   1.29000008       36.3525620       21.8591938    
   1.29100001       36.3744202       21.8493938    
   1.29200006       36.3962669       21.8395939    
   1.29300010       36.4180984       21.8297939    
   1.29400003       36.4399261       21.8199940    
   1.29500008       36.4617462       21.8101940    
   1.29600000       36.4835510       21.8003941    
   1.29700005       36.5053482       21.7905941    
   1.29800010       36.5271378       21.7807941    
   1.29900002       36.5489120       21.7709942    
   1.30000007       36.5706787       21.7611942    
   1.30100012       36.5924377       21.7513943    
   1.30200005       36.6141853       21.7415943    
   1.30300009       36.6359253       21.7317944    
   1.30400002       36.6576538       21.7219944    
   1.30500007       36.6793747       21.7121944    
   1.30600011       36.7010803       21.7023945    
   1.30700004       36.7227783       21.6925945    
   1.30800009       36.7444687       21.6827946    
   1.30900002       36.7661476       21.6729946    
   1.31000006       36.7878189       21.6631947    
   1.31100011       36.8094788       21.6533947    
   1.31200004       36.8311272       21.6435947    
   1.31300008       36.8527679       21.6337948    
   1.31400001       36.8744011       21.6239948    
   1.31500006       36.8960190       21.6141949    
   1.31600010       36.9176292       21.6043949    
   1.31700003       36.9392319       21.5945950    
   1.31800008       36.9608231       21.5847950    
   1.31900001       36.9824028       21.5749950    
   1.32000005       37.0039749       21.5651951    
   1.32100010       37.0255394       21.5553951    
   1.32200003       37.0470886       21.5455952    
   1.32300007       37.0686340       21.5357952    
   1.32400012       37.0901680       21.5259953    
   1.32500005       37.1116867       21.5161953    
   1.32600009       37.1332016       21.5063953    
   1.32700002       37.1547050       21.4965954    
   1.32800007       37.1761971       21.4867954    
   1.32900012       37.1976814       21.4769955    
   1.33000004       37.2191544       21.4671955    
   1.33100009       37.2406197       21.4573956    
   1.33200002       37.2620697       21.4475956    
   1.33300006       37.2835159       21.4377956    
   1.33400011       37.3049545       21.4279957    
   1.33500004       37.3263741       21.4181957    
   1.33600008       37.3477898       21.4083958    
   1.33700001       37.3691978       21.3985958    
   1.33800006       37.3905907       21.3887959    
   1.33900011       37.4119759       21.3789959    
   1.34000003       37.4333534       21.3691959    
   1.34100008       37.4547157       21.3593960    
   1.34200001       37.4760742       21.3495960    
   1.34300005       37.4974213       21.3397961    
   1.34400010       37.5187531       21.3299961    
   1.34500003       37.5400848       21.3201962    
   1.34600008       37.5614014       21.3103962    
   1.34700012       37.5827103       21.3005962    
   1.34800005       37.6040039       21.2907963    
   1.34900010       37.6252937       21.2809963    
   1.35000002       37.6465721       21.2711964    
   1.35100007       37.6678391       21.2613964    
   1.35200012       37.6890945       21.2515965    
   1.35300004       37.7103462       21.2417965    
   1.35400009       37.7315826       21.2319965    
   1.35500002       37.7528114       21.2221966    
   1.35600007       37.7740326       21.2123966    
   1.35700011       37.7952385       21.2025967    
   1.35800004       37.8164368       21.1927967    
   1.35900009       37.8376312       21.1829967    
   1.36000001       37.8588104       21.1731968    
   1.36100006       37.8799782       21.1633968    
   1.36200011       37.9011383       21.1535969    
   1.36300004       37.9222908       21.1437969    
   1.36400008       37.9434280       21.1339970    
   1.36500001       37.9645615       21.1241970    
   1.36600006       37.9856796       21.1143970    
   1.36700010       38.0067902       21.1045971    
   1.36800003       38.0278931       21.0947971    
   1.36900008       38.0489845       21.0849972    
   1.37000012       38.0700645       21.0751972    
   1.37100005       38.0911369       21.0653973    
   1.37200010       38.1122017       21.0555973    
   1.37300003       38.1332550       21.0457973    
   1.37400007       38.1542931       21.0359974    
   1.37500012       38.1753273       21.0261974    
   1.37600005       38.1963501       21.0163975    
   1.37700009       38.2173615       21.0065975    
   1.37800002       38.2383652       20.9967976    
   1.37900007       38.2593613       20.9869976    
   1.38000011       38.2803421       20.9771976    
   1.38100004       38.3013191       20.9673977    
   1.38200009       38.3222847       20.9575977    
   1.38300002       38.3432350       20.9477978    
   1.38400006       38.3641815       20.9379978    
   1.38500011       38.3851166       20.9281979    
   1.38600004       38.4060402       20.9183979    
   1.38700008       38.4269562       20.9085979    
   1.38800001       38.4478607       20.8987980    
   1.38900006       38.4687576       20.8889980    
   1.39000010       38.4896393       20.8791981    
   1.39100003       38.5105171       20.8693981    
   1.39200008       38.5313873       20.8595982    
   1.39300001       38.5522385       20.8497982    
   1.39400005       38.5730858       20.8399982    
   1.39500010       38.5939255       20.8301983    
   1.39600003       38.6147499       20.8203983    
   1.39700007       38.6355667       20.8105984    
   1.39800012       38.6563759       20.8007984    
   1.39900005       38.6771698       20.7909985    
   1.40000010       38.6979599       20.7811985    
   1.40100002       38.7187386       20.7713985    
   1.40200007       38.7395096       20.7615986    
   1.40300012       38.7602615       20.7517986    
   1.40400004       38.7810135       20.7419987    
   1.40500009       38.8017540       20.7321987    
   1.40600002       38.8224792       20.7223988    
   1.40700006       38.8432007       20.7125988    
   1.40800011       38.8639107       20.7027988    
   1.40900004       38.8846054       20.6929989    
   1.41000009       38.9052963       20.6831989    
   1.41100001       38.9259796       20.6733990    
   1.41200006       38.9466476       20.6635990    
   1.41300011       38.9673080       20.6537991    
   1.41400003       38.9879608       20.6439991    
   1.41500008       39.0086021       20.6341991    
   1.41600001       39.0292282       20.6243992    
   1.41700006       39.0498505       20.6145992    
   1.41800010       39.0704651       20.6047993    
   1.41900003       39.0910645       20.5949993    
   1.42000008       39.1116562       20.5851994    
   1.42100012       39.1322403       20.5753994    
   1.42200005       39.1528091       20.5655994    
   1.42300010       39.1733704       20.5557995    
   1.42400002       39.1939240       20.5459995    
   1.42500007       39.2144661       20.5361996    
   1.42600012       39.2350006       20.5263996    
   1.42700005       39.2555237       20.5165997    
   1.42800009       39.2760353       20.5067997    
   1.42900002       39.2965393       20.4969997    
   1.43000007       39.3170357       20.4871998    
   1.43100011       39.3375206       20.4773998    
   1.43200004       39.3579903       20.4675999    
   1.43300009       39.3784561       20.4577999    
   1.43400002       39.3989105       20.4480000    
   1.43500006       39.4193535       20.4382000    
   1.43600011       39.4397888       20.4284000    
   1.43700004       39.4602165       20.4186001    
   1.43800008       39.4806290       20.4088001    
   1.43900001       39.5010376       20.3990002    
   1.44000006       39.5214348       20.3892002    
   1.44100010       39.5418167       20.3794003    
   1.44200003       39.5621948       20.3696003    
   1.44300008       39.5825615       20.3598003    
   1.44400012       39.6029205       20.3500004    
   1.44500005       39.6232643       20.3402004    
   1.44600010       39.6436005       20.3304005    
   1.44700003       39.6639290       20.3206005    
   1.44800007       39.6842422       20.3108006    
   1.44900012       39.7045517       20.3010006    
   1.45000005       39.7248535       20.2912006    
   1.45100009       39.7451363       20.2814007    
   1.45200002       39.7654152       20.2716007    
   1.45300007       39.7856865       20.2618008    
   1.45400012       39.8059425       20.2520008    
   1.45500004       39.8261909       20.2422009    
   1.45600009       39.8464317       20.2324009    
   1.45700002       39.8666611       20.2226009    
   1.45800006       39.8868790       20.2128010    
   1.45900011       39.9070892       20.2030010    
   1.46000004       39.9272919       20.1932011    
   1.46100008       39.9474792       20.1834011    
   1.46200001       39.9676590       20.1736012    
   1.46300006       39.9878311       20.1638012    
   1.46400011       40.0079880       20.1540012    
   1.46500003       40.0281410       20.1442013    
   1.46600008       40.0482826       20.1344013    
   1.46700013       40.0684128       20.1246014    
   1.46800005       40.0885315       20.1148014    
   1.46900010       40.1086464       20.1050014    
   1.47000003       40.1287498       20.0952015    
   1.47100008       40.1488380       20.0854015    
   1.47200012       40.1689224       20.0756016    
   1.47300005       40.1889954       20.0658016    
   1.47400010       40.2090530       20.0560017    
   1.47500002       40.2291107       20.0462017    
   1.47600007       40.2491531       20.0364017    
   1.47700012       40.2691841       20.0266018    
   1.47800004       40.2892075       20.0168018    
   1.47900009       40.3092232       20.0070019    
   1.48000002       40.3292236       19.9972019    
   1.48100007       40.3492203       19.9874020    
   1.48200011       40.3692017       19.9776020    
   1.48300004       40.3891754       19.9678020    
   1.48400009       40.4091415       19.9580021    
   1.48500001       40.4290962       19.9482021    
   1.48600006       40.4490433       19.9384022    
   1.48700011       40.4689751       19.9286022    
   1.48800004       40.4889030       19.9188023    
   1.48900008       40.5088196       19.9090023    
   1.49000013       40.5287209       19.8992023    
   1.49100006       40.5486183       19.8894024    
   1.49200010       40.5685043       19.8796024    
   1.49300003       40.5883789       19.8698025    
   1.49400008       40.6082458       19.8600025    
   1.49500012       40.6281052       19.8502026    
   1.49600005       40.6479492       19.8404026    
   1.49700010       40.6677895       19.8306026    
   1.49800003       40.6876183       19.8208027    
   1.49900007       40.7074356       19.8110027    
   1.50000012       40.7272415       19.8012028    
   1.50100005       40.7470398       19.7914028    
   1.50200009       40.7668304       19.7816029    
   1.50300002       40.7866058       19.7718029    
   1.50400007       40.8063736       19.7620029    
   1.50500011       40.8261337       19.7522030    
   1.50600004       40.8458786       19.7424030    
   1.50700009       40.8656197       19.7326031    
   1.50800002       40.8853531       19.7228031    
   1.50900006       40.9050674       19.7130032    
   1.51000011       40.9247780       19.7032032    
   1.51100004       40.9444809       19.6934032    
   1.51200008       40.9641724       19.6836033    
   1.51300013       40.9838486       19.6738033    
   1.51400006       41.0035210       19.6640034    
   1.51500010       41.0231819       19.6542034    
   1.51600003       41.0428314       19.6444035    
   1.51700008       41.0624733       19.6346035    
   1.51800013       41.0821075       19.6248035    
   1.51900005       41.1017227       19.6150036    
   1.52000010       41.1213379       19.6052036    
   1.52100003       41.1409416       19.5954037    
   1.52200007       41.1605301       19.5856037    
   1.52300012       41.1801147       19.5758038    
   1.52400005       41.1996880       19.5660038    
   1.52500010       41.2192459       19.5562038    
   1.52600002       41.2388000       19.5464039    
   1.52700007       41.2583466       19.5366039    
   1.52800012       41.2778816       19.5268040    
   1.52900004       41.2974014       19.5170040    
   1.53000009       41.3169174       19.5072041    
   1.53100002       41.3364220       19.4974041    
   1.53200006       41.3559113       19.4876041    
   1.53300011       41.3753967       19.4778042    
   1.53400004       41.3948746       19.4680042    
   1.53500009       41.4143372       19.4582043    
   1.53600001       41.4337921       19.4484043    
   1.53700006       41.4532394       19.4386044    
   1.53800011       41.4726715       19.4288044    
   1.53900003       41.4920959       19.4190044    
   1.54000008       41.5115128       19.4092045    
   1.54100013       41.5309219       19.3994045    
   1.54200006       41.5503159       19.3896046    
   1.54300010       41.5697021       19.3798046    
   1.54400003       41.5890808       19.3700047    
   1.54500008       41.6084442       19.3602047    
   1.54600012       41.6278038       19.3504047    
   1.54700005       41.6471519       19.3406048    
   1.54800010       41.6664848       19.3308048    
   1.54900002       41.6858139       19.3210049    
   1.55000007       41.7051315       19.3112049    
   1.55100012       41.7244377       19.3014050    
   1.55200005       41.7437363       19.2916050    
   1.55300009       41.7630272       19.2818050    
   1.55400002       41.7823067       19.2720051    
   1.55500007       41.8015747       19.2622051    
   1.55600011       41.8208351       19.2524052    
   1.55700004       41.8400841       19.2426052    
   1.55800009       41.8593216       19.2328053    
   1.55900002       41.8785515       19.2230053    
   1.56000006       41.8977737       19.2132053    
   1.56100011       41.9169807       19.2034054    
   1.56200004       41.9361801       19.1936054    
   1.56300008       41.9553719       19.1838055    
   1.56400013       41.9745483       19.1740055    
   1.56500006       41.9937210       19.1642056    
   1.56600010       42.0128860       19.1544056    
   1.56700003       42.0320320       19.1446056    
   1.56800008       42.0511742       19.1348057    
   1.56900012       42.0703087       19.1250057    
   1.57000005       42.0894318       19.1152058    
   1.57100010       42.1085396       19.1054058    
   1.57200003       42.1276436       19.0956059    
   1.57300007       42.1467361       19.0858059    
   1.57400012       42.1658173       19.0760059    
   1.57500005       42.1848907       19.0662060    
   1.57600009       42.2039566       19.0564060    
   1.57700002       42.2230072       19.0466061    
   1.57800007       42.2420502       19.0368061    
   1.57900012       42.2610855       19.0270061    
   1.58000004       42.2801056       19.0172062    
   1.58100009       42.2991219       19.0074062    
   1.58200002       42.3181267       18.9976063    
   1.58300006       42.3371201       18.9878063    
   1.58400011       42.3561020       18.9780064    
   1.58500004       42.3750801       18.9682064    
   1.58600008       42.3940430       18.9584064    
   1.58700013       42.4129982       18.9486065    
   1.58800006       42.4319458       18.9388065    
   1.58900011       42.4508820       18.9290066    
   1.59000003       42.4698029       18.9192066    
   1.59100008       42.4887199       18.9094067    
   1.59200013       42.5076294       18.8996067    
   1.59300005       42.5265198       18.8898067    
   1.59400010       42.5454102       18.8800068    
   1.59500003       42.5642853       18.8702068    
   1.59600008       42.5831566       18.8604069    
   1.59700012       42.6020088       18.8506069    
   1.59800005       42.6208572       18.8408070    
   1.59900010       42.6396980       18.8310070    
   1.60000002       42.6585236       18.8212070    
   1.60100007       42.6773415       18.8114071    
   1.60200012       42.6961517       18.8016071    
   1.60300004       42.7149467       18.7918072    
   1.60400009       42.7337341       18.7820072    
   1.60500002       42.7525177       18.7722073    
   1.60600007       42.7712822       18.7624073    
   1.60700011       42.7900429       18.7526073    
   1.60800004       42.8087921       18.7428074    
   1.60900009       42.8275337       18.7330074    
   1.61000013       42.8462601       18.7232075    
   1.61100006       42.8649826       18.7134075    
   1.61200011       42.8836937       18.7036076    
   1.61300004       42.9023895       18.6938076    
   1.61400008       42.9210815       18.6840076    
   1.61500013       42.9397659       18.6742077    
   1.61600006       42.9584312       18.6644077    
   1.61700010       42.9770966       18.6546078    
   1.61800003       42.9957466       18.6448078    
   1.61900008       43.0143852       18.6350079    
   1.62000012       43.0330200       18.6252079    
   1.62100005       43.0516434       18.6154079    
   1.62200010       43.0702515       18.6056080    
   1.62300003       43.0888557       18.5958080    
   1.62400007       43.1074486       18.5860081    
   1.62500012       43.1260338       18.5762081    
   1.62600005       43.1446037       18.5664082    
   1.62700009       43.1631660       18.5566082    
   1.62800002       43.1817207       18.5468082    
   1.62900007       43.2002640       18.5370083    
   1.63000011       43.2187958       18.5272083    
   1.63100004       43.2373238       18.5174084    
   1.63200009       43.2558365       18.5076084    
   1.63300014       43.2743378       18.4978085    
   1.63400006       43.2928352       18.4880085    
   1.63500011       43.3113174       18.4782085    
   1.63600004       43.3297958       18.4684086    
   1.63700008       43.3482590       18.4586086    
   1.63800013       43.3667145       18.4488087    
   1.63900006       43.3851585       18.4390087    
   1.64000010       43.4035950       18.4292088    
   1.64100003       43.4220238       18.4194088    
   1.64200008       43.4404373       18.4096088    
   1.64300013       43.4588432       18.3998089    
   1.64400005       43.4772415       18.3900089    
   1.64500010       43.4956245       18.3802090    
   1.64600003       43.5140038       18.3704090    
   1.64700007       43.5323715       18.3606091    
   1.64800012       43.5507278       18.3508091    
   1.64900005       43.5690765       18.3410091    
   1.65000010       43.5874138       18.3312092    
   1.65100002       43.6057434       18.3214092    
   1.65200007       43.6240578       18.3116093    
   1.65300012       43.6423683       18.3018093    
   1.65400004       43.6606674       18.2920094    
   1.65500009       43.6789551       18.2822094    
   1.65600014       43.6972351       18.2724094    
   1.65700006       43.7155037       18.2626095    
   1.65800011       43.7337608       18.2528095    
   1.65900004       43.7520142       18.2430096    
   1.66000009       43.7702522       18.2332096    
   1.66100013       43.7884827       18.2234097    
   1.66200006       43.8067017       18.2136097    
   1.66300011       43.8249130       18.2038097    
   1.66400003       43.8431091       18.1940098    
   1.66500008       43.8613052       18.1842098    
   1.66600013       43.8794861       18.1744099    
   1.66700006       43.8976593       18.1646099    
   1.66800010       43.9158173       18.1548100    
   1.66900003       43.9339676       18.1450100    
   1.67000008       43.9521103       18.1352100    
   1.67100012       43.9702415       18.1254101    
   1.67200005       43.9883652       18.1156101    
   1.67300010       44.0064774       18.1058102    
   1.67400002       44.0245781       18.0960102    
   1.67500007       44.0426712       18.0862103    
   1.67600012       44.0607567       18.0764103    
   1.67700005       44.0788269       18.0666103    
   1.67800009       44.0968895       18.0568104    
   1.67900014       44.1149445       18.0470104    
   1.68000007       44.1329880       18.0372105    
   1.68100011       44.1510201       18.0274105    
   1.68200004       44.1690445       18.0176105    
   1.68300009       44.1870613       18.0078106    
   1.68400013       44.2050629       17.9980106    
   1.68500006       44.2230606       17.9882107    
   1.68600011       44.2410469       17.9784107    
   1.68700004       44.2590179       17.9686108    
   1.68800008       44.2769852       17.9588108    
   1.68900013       44.2949409       17.9490108    
   1.69000006       44.3128853       17.9392109    
   1.69100010       44.3308220       17.9294109    
   1.69200003       44.3487473       17.9196110    
   1.69300008       44.3666687       17.9098110    
   1.69400012       44.3845711       17.9000111    
   1.69500005       44.4024696       17.8902111    
   1.69600010       44.4203568       17.8804111    
   1.69700003       44.4382324       17.8706112    
   1.69800007       44.4561005       17.8608112    
   1.69900012       44.4739571       17.8510113    
   1.70000005       44.4918022       17.8412113    
   1.70100009       44.5096436       17.8314114    
   1.70200002       44.5274734       17.8216114    
   1.70300007       44.5452881       17.8118114    
   1.70400012       44.5630951       17.8020115    
   1.70500004       44.5808983       17.7922115    
   1.70600009       44.5986824       17.7824116    
   1.70700014       44.6164627       17.7726116    
   1.70800006       44.6342354       17.7628117    
   1.70900011       44.6519928       17.7530117    
   1.71000004       44.6697426       17.7432117    
   1.71100008       44.6874847       17.7334118    
   1.71200013       44.7052155       17.7236118    
   1.71300006       44.7229309       17.7138119    
   1.71400011       44.7406425       17.7040119    
   1.71500003       44.7583466       17.6942120    
   1.71600008       44.7760353       17.6844120    
   1.71700013       44.7937164       17.6746120    
   1.71800005       44.8113899       17.6648121    
   1.71900010       44.8290482       17.6550121    
   1.72000003       44.8467026       17.6452122    
   1.72100008       44.8643417       17.6354122    
   1.72200012       44.8819771       17.6256123    
   1.72300005       44.8995972       17.6158123    
   1.72400010       44.9172096       17.6060123    
   1.72500002       44.9348145       17.5962124    
   1.72600007       44.9524040       17.5864124    
   1.72700012       44.9699898       17.5766125    
   1.72800004       44.9875641       17.5668125    
   1.72900009       45.0051231       17.5570126    
   1.73000014       45.0226784       17.5472126    
   1.73100007       45.0402222       17.5374126    
   1.73200011       45.0577545       17.5276127    
   1.73300004       45.0752792       17.5178127    
   1.73400009       45.0927963       17.5080128    
   1.73500013       45.1103020       17.4982128    
   1.73600006       45.1277962       17.4884129    
   1.73700011       45.1452827       17.4786129    
   1.73800004       45.1627579       17.4688129    
   1.73900008       45.1802216       17.4590130    
   1.74000013       45.1976776       17.4492130    
   1.74100006       45.2151260       17.4394131    
   1.74200010       45.2325592       17.4296131    
   1.74300003       45.2499847       17.4198132    
   1.74400008       45.2674026       17.4100132    
   1.74500012       45.2848091       17.4002132    
   1.74600005       45.3022079       17.3904133    
   1.74700010       45.3195953       17.3806133    
   1.74800003       45.3369751       17.3708134    
   1.74900007       45.3543396       17.3610134    
   1.75000012       45.3716965       17.3512135    
   1.75100005       45.3890457       17.3414135    
   1.75200009       45.4063797       17.3316135    
   1.75300014       45.4237099       17.3218136    
   1.75400007       45.4410324       17.3120136    
   1.75500011       45.4583359       17.3022137    
   1.75600004       45.4756355       17.2924137    
   1.75700009       45.4929276       17.2826138    
   1.75800014       45.5102043       17.2728138    
   1.75900006       45.5274734       17.2630138    
   1.76000011       45.5447350       17.2532139    
   1.76100004       45.5619812       17.2434139    
   1.76200008       45.5792236       17.2336140    
   1.76300013       45.5964546       17.2238140    
   1.76400006       45.6136780       17.2140141    
   1.76500010       45.6308861       17.2042141    
   1.76600003       45.6480865       17.1944141    
   1.76700008       45.6652794       17.1846142    
   1.76800013       45.6824570       17.1748142    
   1.76900005       45.6996307       17.1650143    
   1.77000010       45.7167931       17.1552143    
   1.77100003       45.7339439       17.1454144    
   1.77200007       45.7510872       17.1356144    
   1.77300012       45.7682190       17.1258144    
   1.77400005       45.7853394       17.1160145    
   1.77500010       45.8024521       17.1062145    
   1.77600014       45.8195572       17.0964146    
   1.77700007       45.8366547       17.0866146    
   1.77800012       45.8537331       17.0768147    
   1.77900004       45.8708076       17.0670147    
   1.78000009       45.8878708       17.0572147    
   1.78100014       45.9049225       17.0474148    
   1.78200006       45.9219704       17.0376148    
   1.78300011       45.9390030       17.0278149    
   1.78400004       45.9560280       17.0180149    
   1.78500009       45.9730415       17.0082150    
   1.78600013       45.9900475       16.9984150    
   1.78700006       46.0070419       16.9886150    
   1.78800011       46.0240288       16.9788151    
   1.78900003       46.0410042       16.9690151    
   1.79000008       46.0579720       16.9592152    
   1.79100013       46.0749245       16.9494152    
   1.79200006       46.0918732       16.9396152    
   1.79300010       46.1088104       16.9298153    
   1.79400003       46.1257324       16.9200153    
   1.79500008       46.1426506       16.9102154    
   1.79600012       46.1595612       16.9004154    
   1.79700005       46.1764526       16.8906155    
   1.79800010       46.1933441       16.8808155    
   1.79900014       46.2102203       16.8710155    
   1.80000007       46.2270851       16.8612156    
   1.80100012       46.2439461       16.8514156    
   1.80200005       46.2607956       16.8416157    
   1.80300009       46.2776299       16.8318157    
   1.80400014       46.2944603       16.8220158    
   1.80500007       46.3112793       16.8122158    
   1.80600011       46.3280907       16.8024158    
   1.80700004       46.3448868       16.7926159    
   1.80800009       46.3616791       16.7828159    
   1.80900013       46.3784561       16.7730160    
   1.81000006       46.3952255       16.7632160    
   1.81100011       46.4119873       16.7534161    
   1.81200004       46.4287415       16.7436161    
   1.81300008       46.4454765       16.7338161    
   1.81400013       46.4622078       16.7240162    
   1.81500006       46.4789276       16.7142162    
   1.81600010       46.4956360       16.7044163    
   1.81700003       46.5123405       16.6946163    
   1.81800008       46.5290337       16.6848164    
   1.81900012       46.5457153       16.6750164    
   1.82000005       46.5623856       16.6652164    
   1.82100010       46.5790482       16.6554165    
   1.82200015       46.5957031       16.6456165    
   1.82300007       46.6123428       16.6358166    
   1.82400012       46.6289749       16.6260166    
   1.82500005       46.6455994       16.6162167    
   1.82600009       46.6622086       16.6064167    
   1.82700014       46.6788139       16.5966167    
   1.82800007       46.6954079       16.5868168    
   1.82900012       46.7119904       16.5770168    
   1.83000004       46.7285614       16.5672169    
   1.83100009       46.7451286       16.5574169    
   1.83200014       46.7616844       16.5476170    
   1.83300006       46.7782288       16.5378170    
   1.83400011       46.7947617       16.5280170    
   1.83500004       46.8112869       16.5182171    
   1.83600008       46.8277969       16.5084171    
   1.83700013       46.8443069       16.4986172    
   1.83800006       46.8608017       16.4888172    
   1.83900011       46.8772850       16.4790173    
   1.84000003       46.8937607       16.4692173    
   1.84100008       46.9102325       16.4594173    
   1.84200013       46.9266815       16.4496174    
   1.84300005       46.9431305       16.4398174    
   1.84400010       46.9595680       16.4300175    
   1.84500003       46.9759903       16.4202175    
   1.84600008       46.9924088       16.4104176    
   1.84700012       47.0088196       16.4006176    
   1.84800005       47.0252190       16.3908176    
   1.84900010       47.0416031       16.3810177    
   1.85000014       47.0579834       16.3712177    
   1.85100007       47.0743484       16.3614178    
   1.85200012       47.0907059       16.3516178    
   1.85300004       47.1070557       16.3418179    
   1.85400009       47.1233978       16.3320179    
   1.85500014       47.1397247       16.3222179    
   1.85600007       47.1560440       16.3124180    
   1.85700011       47.1723518       16.3026180    
   1.85800004       47.1886482       16.2928181    
   1.85900009       47.2049408       16.2830181    
   1.86000013       47.2212219       16.2732182    
   1.86100006       47.2374878       16.2634182    
   1.86200011       47.2537537       16.2536182    
   1.86300004       47.2700005       16.2438183    
   1.86400008       47.2862396       16.2340183    
   1.86500013       47.3024750       16.2242184    
   1.86600006       47.3186913       16.2144184    
   1.86700010       47.3348999       16.2046185    
   1.86800003       47.3511047       16.1948185    
   1.86900008       47.3672943       16.1850185    
   1.87000012       47.3834763       16.1752186    
   1.87100005       47.3996506       16.1654186    
   1.87200010       47.4158096       16.1556187    
   1.87300014       47.4319611       16.1458187    
   1.87400007       47.4481087       16.1360188    
   1.87500012       47.4642410       16.1262188    
   1.87600005       47.4803619       16.1164188    
   1.87700009       47.4964790       16.1066189    
   1.87800014       47.5125809       16.0968189    
   1.87900007       47.5286713       16.0870190    
   1.88000011       47.5447578       16.0772190    
   1.88100004       47.5608292       16.0674191    
   1.88200009       47.5768967       16.0576191    
   1.88300014       47.5929489       16.0478191    
   1.88400006       47.6089935       16.0380192    
   1.88500011       47.6250305       16.0282192    
   1.88600004       47.6410522       16.0184193    
   1.88700008       47.6570663       16.0086193    
   1.88800013       47.6730766       15.9988194    
   1.88900006       47.6890717       15.9890194    
   1.89000010       47.7050552       15.9792194    
   1.89100003       47.7210350       15.9694195    
   1.89200008       47.7369995       15.9596195    
   1.89300013       47.7529526       15.9498196    
   1.89400005       47.7689018       15.9400196    
   1.89500010       47.7848358       15.9302197    
   1.89600015       47.8007584       15.9204197    
   1.89700007       47.8166809       15.9106197    
   1.89800012       47.8325882       15.9008198    
   1.89900005       47.8484840       15.8910198    
   1.90000010       47.8643761       15.8812199    
   1.90100014       47.8802490       15.8714199    
   1.90200007       47.8961182       15.8616199    
   1.90300012       47.9119797       15.8518200    
   1.90400004       47.9278259       15.8420200    
   1.90500009       47.9436646       15.8322201    
   1.90600014       47.9594955       15.8224201    
   1.90700006       47.9753113       15.8126202    
   1.90800011       47.9911270       15.8028202    
   1.90900004       48.0069237       15.7930202    
   1.91000009       48.0227127       15.7832203    
   1.91100013       48.0384979       15.7734203    
   1.91200006       48.0542641       15.7636204    
   1.91300011       48.0700226       15.7538204    
   1.91400003       48.0857773       15.7440205    
   1.91500008       48.1015167       15.7342205    
   1.91600013       48.1172409       15.7244205    
   1.91700006       48.1329689       15.7146206    
   1.91800010       48.1486778       15.7048206    
   1.91900015       48.1643753       15.6950207    
   1.92000008       48.1800766       15.6852207    
   1.92100012       48.1957550       15.6754208    
   1.92200005       48.2114220       15.6656208    
   1.92300010       48.2270889       15.6558208    
   1.92400014       48.2427368       15.6460209    
   1.92500007       48.2583771       15.6362209    
   1.92600012       48.2740173       15.6264210    
   1.92700005       48.2896385       15.6166210    
   1.92800009       48.3052521       15.6068211    
   1.92900014       48.3208580       15.5970211    
   1.93000007       48.3364487       15.5872211    
   1.93100011       48.3520279       15.5774212    
   1.93200004       48.3676071       15.5676212    
   1.93300009       48.3831711       15.5578213    
   1.93400013       48.3987236       15.5480213    
   1.93500006       48.4142761       15.5382214    
   1.93600011       48.4298058       15.5284214    
   1.93700004       48.4453354       15.5186214    
   1.93800008       48.4608459       15.5088215    
   1.93900013       48.4763489       15.4990215    
   1.94000006       48.4918518       15.4892216    
   1.94100010       48.5073357       15.4794216    
   1.94200015       48.5228119       15.4696217    
   1.94300008       48.5382805       15.4598217    
   1.94400012       48.5537338       15.4500217    
   1.94500005       48.5691757       15.4402218    
   1.94600010       48.5846176       15.4304218    
   1.94700015       48.6000443       15.4206219    
   1.94800007       48.6154594       15.4108219    
   1.94900012       48.6308746       15.4010220    
   1.95000005       48.6462669       15.3912220    
   1.95100009       48.6616516       15.3814220    
   1.95200014       48.6770325       15.3716221    
   1.95300007       48.6923981       15.3618221    
   1.95400012       48.7077560       15.3520222    
   1.95500004       48.7231102       15.3422222    
   1.95600009       48.7384491       15.3324223    
   1.95700014       48.7537727       15.3226223    
   1.95800006       48.7690964       15.3128223    
   1.95900011       48.7844009       15.3030224    
   1.96000004       48.7996979       15.2932224    
   1.96100008       48.8149948       15.2834225    
   1.96200013       48.8302727       15.2736225    
   1.96300006       48.8455429       15.2638226    
   1.96400011       48.8608093       15.2540226    
   1.96500015       48.8760529       15.2442226    
   1.96600008       48.8913002       15.2344227    
   1.96700013       48.9065285       15.2246227    
   1.96800005       48.9217453       15.2148228    
   1.96900010       48.9369659       15.2050228    
   1.97000015       48.9521637       15.1952229    
   1.97100008       48.9673538       15.1854229    
   1.97200012       48.9825401       15.1756229    
   1.97300005       48.9977112       15.1658230    
   1.97400010       49.0128708       15.1560230    
   1.97500014       49.0280266       15.1462231    
   1.97600007       49.0431671       15.1364231    
   1.97700012       49.0582962       15.1266232    
   1.97800004       49.0734253       15.1168232    
   1.97900009       49.0885391       15.1070232    
   1.98000014       49.1036377       15.0972233    
   1.98100007       49.1187363       15.0874233    
   1.98200011       49.1338196       15.0776234    
   1.98300004       49.1488876       15.0678234    
   1.98400009       49.1639595       15.0580235    
   1.98500013       49.1790123       15.0482235    
   1.98600006       49.1940536       15.0384235    
   1.98700011       49.2090912       15.0286236    
   1.98800004       49.2241135       15.0188236    
   1.98900008       49.2391281       15.0090237    
   1.99000013       49.2541389       14.9992237    
   1.99100006       49.2691345       14.9894238    
   1.99200010       49.2841263       14.9796238    
   1.99300015       49.2990990       14.9698238    
   1.99400008       49.3140640       14.9600239    
   1.99500012       49.3290253       14.9502239    
   1.99600005       49.3439674       14.9404240    
   1.99700010       49.3589020       14.9306240    
   1.99800014       49.3738327       14.9208241    
   1.99900007       49.3887482       14.9110241    
   2.00000000       49.4036560       14.9012241    
   2.00100017       49.4185486       14.8914242    
   2.00200009       49.4334335       14.8816242    
   2.00300002       49.4483109       14.8718243    
   2.00400019       49.4631691       14.8620243    
   2.00500011       49.4780273       14.8522243    
   2.00600004       49.4928741       14.8424244    
   2.00700021       49.5077095       14.8326244    
   2.00800014       49.5225372       14.8228245    
   2.00900006       49.5373535       14.8130245    
   2.00999999       49.5521507       14.8032246    
   2.01100016       49.5669479       14.7934246    
   2.01200008       49.5817337       14.7836246    
   2.01300001       49.5965118       14.7738247    
   2.01400018       49.6112823       14.7640247    
   2.01500010       49.6260300       14.7542248    
   2.01600003       49.6407776       14.7444248    
   2.01700020       49.6555176       14.7346249    
   2.01800013       49.6702461       14.7248249    
   2.01900005       49.6849670       14.7150249    
   2.01999998       49.6996689       14.7052250    
   2.02100015       49.7143669       14.6954250    
   2.02200007       49.7290573       14.6856251    
   2.02300000       49.7437363       14.6758251    
   2.02400017       49.7584076       14.6660252    
   2.02500010       49.7730560       14.6562252    
   2.02600002       49.7877083       14.6464252    
   2.02700019       49.8023491       14.6366253    
   2.02800012       49.8169785       14.6268253    
   2.02900004       49.8316040       14.6170254    
   2.03000021       49.8462067       14.6072254    
   2.03100014       49.8608055       14.5974255    
   2.03200006       49.8753967       14.5876255    
   2.03299999       49.8899765       14.5778255    
   2.03400016       49.9045486       14.5680256    
   2.03500009       49.9191055       14.5582256    
   2.03600001       49.9336586       14.5484257    
   2.03700018       49.9482002       14.5386257    
   2.03800011       49.9627304       14.5288258    
   2.03900003       49.9772568       14.5190258    
   2.04000020       49.9917679       14.5092258    
   2.04100013       50.0062637       14.4994259    
   2.04200006       50.0207596       14.4896259    
   2.04299998       50.0352402       14.4798260    
   2.04400015       50.0497131       14.4700260    
   2.04500008       50.0641785       14.4602261    
   2.04600000       50.0786247       14.4504261    
   2.04700017       50.0930710       14.4406261    
   2.04800010       50.1075058       14.4308262    
   2.04900002       50.1219292       14.4210262    
   2.05000019       50.1363449       14.4112263    
   2.05100012       50.1507416       14.4014263    
   2.05200005       50.1651382       14.3916264    
   2.05300021       50.1795235       14.3818264    
   2.05400014       50.1939011       14.3720264    
   2.05500007       50.2082672       14.3622265    
   2.05599999       50.2226143       14.3524265    
   2.05700016       50.2369614       14.3426266    
   2.05800009       50.2512970       14.3328266    
   2.05900002       50.2656250       14.3230267    
   2.06000018       50.2799416       14.3132267    
   2.06100011       50.2942429       14.3034267    
   2.06200004       50.3085403       14.2936268    
   2.06300020       50.3228264       14.2838268    
   2.06400013       50.3371048       14.2740269    
   2.06500006       50.3513718       14.2642269    
   2.06599998       50.3656235       14.2544270    
   2.06700015       50.3798714       14.2446270    
   2.06800008       50.3941116       14.2348270    
   2.06900001       50.4083405       14.2250271    
   2.07000017       50.4225578       14.2152271    
   2.07100010       50.4367676       14.2054272    
   2.07200003       50.4509583       14.1956272    
   2.07300019       50.4651489       14.1858273    
   2.07400012       50.4793282       14.1760273    
   2.07500005       50.4934998       14.1662273    
   2.07600021       50.5076599       14.1564274    
   2.07700014       50.5218010       14.1466274    
   2.07800007       50.5359421       14.1368275    
   2.07900000       50.5500717       14.1270275    
   2.08000016       50.5641937       14.1172276    
   2.08100009       50.5783081       14.1074276    
   2.08200002       50.5923996       14.0976276    
   2.08300018       50.6064911       14.0878277    
   2.08400011       50.6205750       14.0780277    
   2.08500004       50.6346436       14.0682278    
   2.08600020       50.6487083       14.0584278    
   2.08700013       50.6627541       14.0486279    
   2.08800006       50.6767960       14.0388279    
   2.08899999       50.6908264       14.0290279    
   2.09000015       50.7048492       14.0192280    
   2.09100008       50.7188644       14.0094280    
   2.09200001       50.7328606       13.9996281    
   2.09300017       50.7468567       13.9898281    
   2.09400010       50.7608414       13.9800282    
   2.09500003       50.7748108       13.9702282    
   2.09600019       50.7887764       13.9604282    
   2.09700012       50.8027229       13.9506283    
   2.09800005       50.8166656       13.9408283    
   2.09900022       50.8306046       13.9310284    
   2.10000014       50.8445282       13.9212284    
   2.10100007       50.8584442       13.9114285    
   2.10200000       50.8723488       13.9016285    
   2.10300016       50.8862381       13.8918285    
   2.10400009       50.9001236       13.8820286    
   2.10500002       50.9139977       13.8722286    
   2.10600019       50.9278641       13.8624287    
   2.10700011       50.9417191       13.8526287    
   2.10800004       50.9555588       13.8428288    
   2.10900021       50.9693985       13.8330288    
   2.11000013       50.9832230       13.8232288    
   2.11100006       50.9970398       13.8134289    
   2.11199999       51.0108490       13.8036289    
   2.11300015       51.0246391       13.7938290    
   2.11400008       51.0384293       13.7840290    
   2.11500001       51.0522079       13.7742290    
   2.11600018       51.0659752       13.7644291    
   2.11700010       51.0797348       13.7546291    
   2.11800003       51.0934753       13.7448292    
   2.11900020       51.1072121       13.7350292    
   2.12000012       51.1209412       13.7252293    
   2.12100005       51.1346588       13.7154293    
   2.12200022       51.1483688       13.7056293    
   2.12300014       51.1620636       13.6958294    
   2.12400007       51.1757507       13.6860294    
   2.12500000       51.1894302       13.6762295    
   2.12600017       51.2031021       13.6664295    
   2.12700009       51.2167625       13.6566296    
   2.12800002       51.2304077       13.6468296    
   2.12900019       51.2440491       13.6370296    
   2.13000011       51.2576790       13.6272297    
   2.13100004       51.2713013       13.6174297    
   2.13200021       51.2849121       13.6076298    
   2.13300014       51.2985115       13.5978298    
   2.13400006       51.3120956       13.5880299    
   2.13499999       51.3256760       13.5782299    
   2.13600016       51.3392487       13.5684299    
   2.13700008       51.3528137       13.5586300    
   2.13800001       51.3663673       13.5488300    
   2.13900018       51.3799019       13.5390301    
   2.14000010       51.3934326       13.5292301    
   2.14100003       51.4069595       13.5194302    
   2.14200020       51.4204712       13.5096302    
   2.14300013       51.4339752       13.4998302    
   2.14400005       51.4474640       13.4900303    
   2.14500022       51.4609451       13.4802303    
   2.14600015       51.4744186       13.4704304    
   2.14700007       51.4878845       13.4606304    
   2.14800000       51.5013390       13.4508305    
   2.14900017       51.5147781       13.4410305    
   2.15000010       51.5282135       13.4312305    
   2.15100002       51.5416374       13.4214306    
   2.15200019       51.5550537       13.4116306    
   2.15300012       51.5684586       13.4018307    
   2.15400004       51.5818481       13.3920307    
   2.15500021       51.5952301       13.3822308    
   2.15600014       51.6086082       13.3724308    
   2.15700006       51.6219749       13.3626308    
   2.15799999       51.6353302       13.3528309    
   2.15900016       51.6486740       13.3430309    
   2.16000009       51.6620102       13.3332310    
   2.16100001       51.6753349       13.3234310    
   2.16200018       51.6886520       13.3136311    
   2.16300011       51.7019577       13.3038311    
   2.16400003       51.7152481       13.2940311    
   2.16500020       51.7285385       13.2842312    
   2.16600013       51.7418175       13.2744312    
   2.16700006       51.7550888       13.2646313    
   2.16800022       51.7683449       13.2548313    
   2.16900015       51.7815933       13.2450314    
   2.17000008       51.7948227       13.2352314    
   2.17100000       51.8080521       13.2254314    
   2.17200017       51.8212738       13.2156315    
   2.17300010       51.8344841       13.2058315    
   2.17400002       51.8476868       13.1960316    
   2.17500019       51.8608665       13.1862316    
   2.17600012       51.8740463       13.1764317    
   2.17700005       51.8872147       13.1666317    
   2.17800021       51.9003754       13.1568317    
   2.17900014       51.9135284       13.1470318    
   2.18000007       51.9266624       13.1372318    
   2.18099999       51.9397964       13.1274319    
   2.18200016       51.9529152       13.1176319    
   2.18300009       51.9660263       13.1078320    
   2.18400002       51.9791260       13.0980320    
   2.18500018       51.9922104       13.0882320    
   2.18600011       52.0052948       13.0784321    
   2.18700004       52.0183678       13.0686321    
   2.18800020       52.0314331       13.0588322    
   2.18900013       52.0444832       13.0490322    
   2.19000006       52.0575180       13.0392323    
   2.19100022       52.0705490       13.0294323    
   2.19200015       52.0835724       13.0196323    
   2.19300008       52.0965881       13.0098324    
   2.19400001       52.1095924       13.0000324    
   2.19500017       52.1225815       12.9902325    
   2.19600010       52.1355667       12.9804325    
   2.19700003       52.1485367       12.9706326    
   2.19800019       52.1615028       12.9608326    
   2.19900012       52.1744576       12.9510326    
   2.20000005       52.1874008       12.9412327    
   2.20100021       52.2003326       12.9314327    
   2.20200014       52.2132568       12.9216328    
   2.20300007       52.2261734       12.9118328    
   2.20400000       52.2390785       12.9020329    
   2.20500016       52.2519760       12.8922329    
   2.20600009       52.2648544       12.8824329    
   2.20700002       52.2777290       12.8726330    
   2.20800018       52.2905960       12.8628330    
   2.20900011       52.3034515       12.8530331    
   2.21000004       52.3162994       12.8432331    
   2.21100020       52.3291321       12.8334332    
   2.21200013       52.3419571       12.8236332    
   2.21300006       52.3547745       12.8138332    
   2.21399999       52.3675842       12.8040333    
   2.21500015       52.3803787       12.7942333    
   2.21600008       52.3931618       12.7844334    
   2.21700001       52.4059410       12.7746334    
   2.21800017       52.4187088       12.7648335    
   2.21900010       52.4314651       12.7550335    
   2.22000003       52.4442139       12.7452335    
   2.22100019       52.4569473       12.7354336    
   2.22200012       52.4696770       12.7256336    
   2.22300005       52.4823990       12.7158337    
   2.22400022       52.4951096       12.7060337    
   2.22500014       52.5078087       12.6962337    
   2.22600007       52.5204926       12.6864338    
   2.22700000       52.5331726       12.6766338    
   2.22800016       52.5458412       12.6668339    
   2.22900009       52.5585022       12.6570339    
   2.23000002       52.5711517       12.6472340    
   2.23100019       52.5837936       12.6374340    
   2.23200011       52.5964203       12.6276340    
   2.23300004       52.6090393       12.6178341    
   2.23400021       52.6216507       12.6080341    
   2.23500013       52.6342545       12.5982342    
   2.23600006       52.6468468       12.5884342    
   2.23699999       52.6594238       12.5786343    
   2.23800015       52.6719971       12.5688343    
   2.23900008       52.6845589       12.5590343    
   2.24000001       52.6971130       12.5492344    
   2.24100018       52.7096558       12.5394344    
   2.24200010       52.7221794       12.5296345    
   2.24300003       52.7347031       12.5198345    
   2.24400020       52.7472153       12.5100346    
   2.24500012       52.7597198       12.5002346    
   2.24600005       52.7722168       12.4904346    
   2.24700022       52.7846909       12.4806347    
   2.24800014       52.7971649       12.4708347    
   2.24900007       52.8096313       12.4610348    
   2.25000000       52.8220863       12.4512348    
   2.25100017       52.8345337       12.4414349    
   2.25200009       52.8469620       12.4316349    
   2.25300002       52.8593864       12.4218349    
   2.25400019       52.8718033       12.4120350    
   2.25500011       52.8842087       12.4022350    
   2.25600004       52.8966064       12.3924351    
   2.25700021       52.9089813       12.3826351    
   2.25800014       52.9213600       12.3728352    
   2.25900006       52.9337273       12.3630352    
   2.25999999       52.9460831       12.3532352    
   2.26100016       52.9584351       12.3434353    
   2.26200008       52.9707718       12.3336353    
   2.26300001       52.9830894       12.3238354    
   2.26400018       52.9954071       12.3140354    
   2.26500010       53.0077133       12.3042355    
   2.26600003       53.0200119       12.2944355    
   2.26700020       53.0323029       12.2846355    
   2.26800013       53.0445747       12.2748356    
   2.26900005       53.0568428       12.2650356    
   2.27000022       53.0690994       12.2552357    
   2.27100015       53.0813522       12.2454357    
   2.27200007       53.0935898       12.2356358    
   2.27300000       53.1058121       12.2258358    
   2.27400017       53.1180344       12.2160358    
   2.27500010       53.1302414       12.2062359    
   2.27600002       53.1424408       12.1964359    
   2.27700019       53.1546326       12.1866360    
   2.27800012       53.1668053       12.1768360    
   2.27900004       53.1789780       12.1670361    
   2.28000021       53.1911392       12.1572361    
   2.28100014       53.2032890       12.1474361    
   2.28200006       53.2154312       12.1376362    
   2.28299999       53.2275543       12.1278362    
   2.28400016       53.2396774       12.1180363    
   2.28500009       53.2517891       12.1082363    
   2.28600001       53.2638931       12.0984364    
   2.28700018       53.2759857       12.0886364    
   2.28800011       53.2880592       12.0788364    
   2.28900003       53.3001328       12.0690365    
   2.29000020       53.3121948       12.0592365    
   2.29100013       53.3242493       12.0494366    
   2.29200006       53.3362923       12.0396366    
   2.29300022       53.3483200       12.0298367    
   2.29400015       53.3603439       12.0200367    
   2.29500008       53.3723564       12.0102367    
   2.29600000       53.3843613       12.0004368    
   2.29700017       53.3963547       11.9906368    
   2.29800010       53.4083405       11.9808369    
   2.29900002       53.4203072       11.9710369    
   2.30000019       53.4322739       11.9612370    
   2.30100012       53.4442291       11.9514370    
   2.30200005       53.4561729       11.9416370    
   2.30300021       53.4681091       11.9318371    
   2.30400014       53.4800262       11.9220371    
   2.30500007       53.4919434       11.9122372    
   2.30599999       53.5038490       11.9024372    
