   0.0000000000000000        1.0000000000000000     
   9.9999997473787516E-005   1.0006154174863968     
   1.9999999494757503E-004   1.0012307018964541     
   2.9999999242136255E-004   1.0018458532506318     
   3.9999998989515007E-004   1.0024608715693879     
   4.9999998736893758E-004   1.0030757568731770     
   5.9999998484272510E-004   1.0036905091824513     
   6.9999998231651261E-004   1.0043051285176601     
   7.9999997979030013E-004   1.0049196148992501     
   8.9999997726408765E-004   1.0055339683476647     
   9.9999997473787516E-004   1.0061481888833457     
   1.0999999722116627E-003   1.0067622765267308     
   1.1999999696854502E-003   1.0073762312982557     
   1.2999999671592377E-003   1.0079900532183530     
   1.3999999646330252E-003   1.0086037423074532     
   1.4999999621068127E-003   1.0092172985859831     
   1.5999999595806003E-003   1.0098307220743674     
   1.6999999570543878E-003   1.0104440127930281     
   1.7999999545281753E-003   1.0110571707623837     
   1.8999999520019628E-003   1.0116701960028505     
   1.9999999494757503E-003   1.0122830885348424     
   2.0999999469495378E-003   1.0128958483787698     
   2.1999999444233254E-003   1.0135084755550408     
   2.2999999418971129E-003   1.0141209700840603     
   2.3999999393709004E-003   1.0147333319862313     
   2.4999999368446879E-003   1.0153455612819533     
   2.5999999343184754E-003   1.0159576579916232     
   2.6999999317922629E-003   1.0165696221356351     
   2.7999999292660505E-003   1.0171814537343806     
   2.8999999267398380E-003   1.0177931528082482     
   2.9999999242136255E-003   1.0184047193776242     
   3.0999999216874130E-003   1.0190161534628916     
   3.1999999191612005E-003   1.0196274550844306     
   3.2999999166349880E-003   1.0202386242626196     
   3.3999999141087756E-003   1.0208496610178326     
   3.4999999115825631E-003   1.0214605653704425     
   3.5999999090563506E-003   1.0220713373408183     
   3.6999999065301381E-003   1.0226819769493272     
   3.7999999040039256E-003   1.0232924842163327     
   3.8999999014777131E-003   1.0239028591621959     
   3.9999998989515007E-003   1.0245131018072757     
   4.0999998964252882E-003   1.0251232121719276     
   4.1999998938990757E-003   1.0257331902765043     
   4.2999998913728632E-003   1.0263430361413564     
   4.3999998888466507E-003   1.0269527497868309     
   4.4999998863204382E-003   1.0275623312332731     
   4.5999998837942258E-003   1.0281717805010244     
   4.6999998812680133E-003   1.0287810976104244     
   4.7999998787418008E-003   1.0293902825818091     
   4.8999998762155883E-003   1.0299993354355128     
   4.9999998736893758E-003   1.0306082561918661     
   5.0999998711631633E-003   1.0312170448711973     
   5.1999998686369509E-003   1.0318257014938317     
   5.2999998661107384E-003   1.0324342260800925     
   5.3999998635845259E-003   1.0330426186502992     
   5.4999998610583134E-003   1.0336508792247696     
   5.5999998585321009E-003   1.0342590078238176     
   5.6999998560058884E-003   1.0348670044677555     
   5.7999998534796759E-003   1.0354748691768920     
   5.8999998509534635E-003   1.0360826019715335     
   5.9999998484272510E-003   1.0366902028719835     
   6.0999998459010385E-003   1.0372976718985427     
   6.1999998433748260E-003   1.0379050090715094     
   6.2999998408486135E-003   1.0385122144111789     
   6.3999998383224010E-003   1.0391192879378435     
   6.4999998357961886E-003   1.0397262296717931     
   6.5999998332699761E-003   1.0403330396333150     
   6.6999998307437636E-003   1.0409397178426933     
   6.7999998282175511E-003   1.0415462643202100     
   6.8999998256913386E-003   1.0421526790861440     
   6.9999998231651261E-003   1.0427589621607707     
   7.0999998206389137E-003   1.0433651135643642     
   7.1999998181127012E-003   1.0439711333171948     
   7.2999998155864887E-003   1.0445770214395309     
   7.3999998130602762E-003   1.0451827779516372     
   7.4999998105340637E-003   1.0457884028737763     
   7.5999998080078512E-003   1.0463938962262078     
   7.6999998054816388E-003   1.0469992580291891     
   7.7999998029554263E-003   1.0476044883029740     
   7.8999998004292138E-003   1.0482095870678143     
   7.9999997979030013E-003   1.0488145543439586     
   8.0999997953767888E-003   1.0494193901516531     
   8.1999997928505763E-003   1.0500240945111410     
   8.2999997903243639E-003   1.0506286674426628     
   8.3999997877981514E-003   1.0512331089664564     
   8.4999997852719389E-003   1.0518374191027571     
   8.5999997827457264E-003   1.0524415978717969     
   8.6999997802195139E-003   1.0530456452938060     
   8.7999997776933014E-003   1.0536495613890104     
   8.8999997751670890E-003   1.0542533461776353     
   8.9999997726408765E-003   1.0548569996799015     
   9.0999997701146640E-003   1.0554605219160280     
   9.1999997675884515E-003   1.0560639129062306     
   9.2999997650622390E-003   1.0566671726707224     
   9.3999997625360265E-003   1.0572703012297144     
   9.4999997600098141E-003   1.0578732986034143     
   9.5999997574836016E-003   1.0584761648120267     
   9.6999997549573891E-003   1.0590788998757543     
   9.7999997524311766E-003   1.0596815038147969     
   9.8999997499049641E-003   1.0602839766493508     
   9.9999997473787516E-003   1.0608863183996107     
   1.0099999744852539E-002   1.0614885290857676     
   1.0199999742326327E-002   1.0620906087280106     
   1.0299999739800114E-002   1.0626925573465253     
   1.0399999737273902E-002   1.0632943749614951     
   1.0499999734747689E-002   1.0638960615931008     
   1.0599999732221477E-002   1.0644976172615197     
   1.0699999729695264E-002   1.0650990419869271     
   1.0799999727169052E-002   1.0657003357894952     
   1.0899999724642839E-002   1.0663014986893937     
   1.0999999722116627E-002   1.0669025307067896     
   1.1099999719590414E-002   1.0675034318618470     
   1.1199999717064202E-002   1.0681042021747273     
   1.1299999714537989E-002   1.0687048416655891     
   1.1399999712011777E-002   1.0693053503545886     
   1.1499999709485564E-002   1.0699057282618791     
   1.1599999706959352E-002   1.0705059754076109     
   1.1699999704433139E-002   1.0711060918119319     
   1.1799999701906927E-002   1.0717060774949874     
   1.1899999699380714E-002   1.0723059324769195     
   1.1999999696854502E-002   1.0729056567778683     
   1.2099999694328289E-002   1.0735052504179701     
   1.2199999691802077E-002   1.0741047134173596     
   1.2299999689275865E-002   1.0747040457961683     
   1.2399999686749652E-002   1.0753032475745246     
   1.2499999684223440E-002   1.0759023187725549     
   1.2599999681697227E-002   1.0765012594103824     
   1.2699999679171015E-002   1.0771000695081279     
   1.2799999676644802E-002   1.0776987490859091     
   1.2899999674118590E-002   1.0782972981638412     
   1.2999999671592377E-002   1.0788957167620368     
   1.3099999669066165E-002   1.0794940049006054     
   1.3199999666539952E-002   1.0800921625996542     
   1.3299999664013740E-002   1.0806901898792878     
   1.3399999661487527E-002   1.0812880867596073     
   1.3499999658961315E-002   1.0818858532607118     
   1.3599999656435102E-002   1.0824834894026976     
   1.3699999653908890E-002   1.0830809952056579     
   1.3799999651382677E-002   1.0836783706896835     
   1.3899999648856465E-002   1.0842756158748625     
   1.3999999646330252E-002   1.0848727307812804     
   1.4099999643804040E-002   1.0854697154290196     
   1.4199999641277827E-002   1.0860665698381597     
   1.4299999638751615E-002   1.0866632940287781     
   1.4399999636225402E-002   1.0872598880209496     
   1.4499999633699190E-002   1.0878563518347453     
   1.4599999631172977E-002   1.0884526854902348     
   1.4699999628646765E-002   1.0890488890074841     
   1.4799999626120552E-002   1.0896449624065569     
   1.4899999623594340E-002   1.0902409057075140     
   1.4999999621068127E-002   1.0908367189304138     
   1.5099999618541915E-002   1.0914324020953114     
   1.5199999616015702E-002   1.0920279552222600     
   1.5299999613489490E-002   1.0926233783313095     
   1.5399999610963278E-002   1.0932186714425072     
   1.5499999608437065E-002   1.0938138345758976     
   1.5599999605910853E-002   1.0944088677515227     
   1.5699999603384640E-002   1.0950037709894218     
   1.5799999600858428E-002   1.0955985443096314     
   1.5899999598332215E-002   1.0961931877321853     
   1.5999999595806003E-002   1.0967877012771148     
   1.6099999593279790E-002   1.0973820849644478     
   1.6199999590753578E-002   1.0979763388142103     
   1.6299999588227365E-002   1.0985704628464252     
   1.6399999585701153E-002   1.0991644570811128     
   1.6499999583174940E-002   1.0997583215382905     
   1.6599999580648728E-002   1.1003520562379734     
   1.6699999578122515E-002   1.1009456612001736     
   1.6799999575596303E-002   1.1015391364449003     
   1.6899999573070090E-002   1.1021324819921607     
   1.6999999570543878E-002   1.1027256978619584     
   1.7099999568017665E-002   1.1033187840742951     
   1.7199999565491453E-002   1.1039117406491690     
   1.7299999562965240E-002   1.1045045676065763     
   1.7399999560439028E-002   1.1050972649665103     
   1.7499999557912815E-002   1.1056898327489613     
   1.7599999555386603E-002   1.1062822709739173     
   1.7699999552860390E-002   1.1068745796613635     
   1.7799999550334178E-002   1.1074667588312819     
   1.7899999547807965E-002   1.1080588085036525     
   1.7999999545281753E-002   1.1086507286984524     
   1.8099999542755540E-002   1.1092425194356557     
   1.8199999540229328E-002   1.1098341807352341     
   1.8299999537703115E-002   1.1104257126171566     
   1.8399999535176903E-002   1.1110171151013892     
   1.8499999532650691E-002   1.1116083882078960     
   1.8599999530124478E-002   1.1121995319566369     
   1.8699999527598266E-002   1.1127905463675707     
   1.8799999525072053E-002   1.1133814314606527     
   1.8899999522545841E-002   1.1139721872558352     
   1.8999999520019628E-002   1.1145628137730690     
   1.9099999517493416E-002   1.1151533110323009     
   1.9199999514967203E-002   1.1157436790534754     
   1.9299999512440991E-002   1.1163339178565348     
   1.9399999509914778E-002   1.1169240274614185     
   1.9499999507388566E-002   1.1175140078880623     
   1.9599999504862353E-002   1.1181038591564008     
   1.9699999502336141E-002   1.1186935812863648     
   1.9799999499809928E-002   1.1192831742978828     
   1.9899999497283716E-002   1.1198726382108806     
   1.9999999494757503E-002   1.1204619730452812     
   2.0099999492231291E-002   1.1210511788210051     
   2.0199999489705078E-002   1.1216402555579701     
   2.0299999487178866E-002   1.1222292032760908     
   2.0399999484652653E-002   1.1228180219952797     
   2.0499999482126441E-002   1.1234067117354463     
   2.0599999479600228E-002   1.1239952725164979     
   2.0699999477074016E-002   1.1245837043583384     
   2.0799999474547803E-002   1.1251720072808693     
   2.0899999472021591E-002   1.1257601813039897     
   2.0999999469495378E-002   1.1263482264475957     
   2.1099999466969166E-002   1.1269361427315803     
   2.1199999464442953E-002   1.1275239301758349     
   2.1299999461916741E-002   1.1281115888002471     
   2.1399999459390529E-002   1.1286991186247026     
   2.1499999456864316E-002   1.1292865196690842     
   2.1599999454338104E-002   1.1298737919532713     
   2.1699999451811891E-002   1.1304609354971422     
   2.1799999449285679E-002   1.1310479503205706     
   2.1899999446759466E-002   1.1316348364434288     
   2.1999999444233254E-002   1.1322215938855864     
   2.2099999441707041E-002   1.1328082226669096     
   2.2199999439180829E-002   1.1333947228072623     
   2.2299999436654616E-002   1.1339810943265056     
   2.2399999434128404E-002   1.1345673372444984     
   2.2499999431602191E-002   1.1351534515810964     
   2.2599999429075979E-002   1.1357394373561527     
   2.2699999426549766E-002   1.1363252945895175     
   2.2799999424023554E-002   1.1369110233010391     
   2.2899999421497341E-002   1.1374966235105624     
   2.2999999418971129E-002   1.1380820952379296     
   2.3099999416444916E-002   1.1386674385029805     
   2.3199999413918704E-002   1.1392526533255523     
   2.3299999411392491E-002   1.1398377397254793     
   2.3399999408866279E-002   1.1404226977225931     
   2.3499999406340066E-002   1.1410075273367228     
   2.3599999403813854E-002   1.1415922285876949     
   2.3699999401287641E-002   1.1421768014953326     
   2.3799999398761429E-002   1.1427612460794572     
   2.3899999396235216E-002   1.1433455623598867     
   2.3999999393709004E-002   1.1439297503564370     
   2.4099999391182791E-002   1.1445138100889207     
   2.4199999388656579E-002   1.1450977415771482     
   2.4299999386130366E-002   1.1456815448409270     
   2.4399999383604154E-002   1.1462652199000622     
   2.4499999381077942E-002   1.1468487667743559     
   2.4599999378551729E-002   1.1474321854836074     
   2.4699999376025517E-002   1.1480154760476136     
   2.4799999373499304E-002   1.1485986384861688     
   2.4899999370973092E-002   1.1491816728190645     
   2.4999999368446879E-002   1.1497645790660893     
   2.5099999365920667E-002   1.1503473572470297     
   2.5199999363394454E-002   1.1509300073816686     
   2.5299999360868242E-002   1.1515125294897874     
   2.5399999358342029E-002   1.1520949235911639     
   2.5499999355815817E-002   1.1526771897055734     
   2.5599999353289604E-002   1.1532593278527890     
   2.5699999350763392E-002   1.1538413380525805     
   2.5799999348237179E-002   1.1544232203247153     
   2.5899999345710967E-002   1.1550049746889584     
   2.5999999343184754E-002   1.1555866011650715     
   2.6099999340658542E-002   1.1561680997728141     
   2.6199999338132329E-002   1.1567494705319430     
   2.6299999335606117E-002   1.1573307134622124     
   2.6399999333079904E-002   1.1579118285833734     
   2.6499999330553692E-002   1.1584928159151746     
   2.6599999328027479E-002   1.1590736754773625     
   2.6699999325501267E-002   1.1596544072896799     
   2.6799999322975054E-002   1.1602350113718680     
   2.6899999320448842E-002   1.1608154877436643     
   2.6999999317922629E-002   1.1613958364248045     
   2.7099999315396417E-002   1.1619760574350209     
   2.7199999312870204E-002   1.1625561507940441     
   2.7299999310343992E-002   1.1631361165216010     
   2.7399999307817779E-002   1.1637159546374163     
   2.7499999305291567E-002   1.1642956651612120     
   2.7599999302765355E-002   1.1648752481127076     
   2.7699999300239142E-002   1.1654547035116194     
   2.7799999297712930E-002   1.1660340313776618     
   2.7899999295186717E-002   1.1666132317305460     
   2.7999999292660505E-002   1.1671923045899804     
   2.8099999290134292E-002   1.1677712499756714     
   2.8199999287608080E-002   1.1683500679073220     
   2.8299999285081867E-002   1.1689287584046331     
   2.8399999282555655E-002   1.1695073214873022     
   2.8499999280029442E-002   1.1700857571750254     
   2.8599999277503230E-002   1.1706640654874949     
   2.8699999274977017E-002   1.1712422464444006     
   2.8799999272450805E-002   1.1718203000654299     
   2.8899999269924592E-002   1.1723982263702679     
   2.8999999267398380E-002   1.1729760253785959     
   2.9099999264872167E-002   1.1735536971100937     
   2.9199999262345955E-002   1.1741312415844380     
   2.9299999259819742E-002   1.1747086588213027     
   2.9399999257293530E-002   1.1752859488403593     
   2.9499999254767317E-002   1.1758631116612761     
   2.9599999252241105E-002   1.1764401473037194     
   2.9699999249714892E-002   1.1770170557873527     
   2.9799999247188680E-002   1.1775938371318366     
   2.9899999244662467E-002   1.1781704913568292     
   2.9999999242136255E-002   1.1787470184819855     
   3.0099999239610042E-002   1.1793234185269588     
   3.0199999237083830E-002   1.1798996915113988     
   3.0299999234557617E-002   1.1804758374549529     
   3.0399999232031405E-002   1.1810518563772663     
   3.0499999229505192E-002   1.1816277482979807     
   3.0599999226978980E-002   1.1822035132367354     
   3.0699999224452768E-002   1.1827791512131676     
   3.0799999221926555E-002   1.1833546622469109     
   3.0899999219400343E-002   1.1839300463575972     
   3.0999999216874130E-002   1.1845053035648554     
   3.1099999214347918E-002   1.1850804338883114     
   3.1199999211821705E-002   1.1856554373475885     
   3.1299999209295493E-002   1.1862303139623078     
   3.1399999206769280E-002   1.1868050637520877     
   3.1499999204243068E-002   1.1873796867365434     
   3.1599999201716855E-002   1.1879541829352875     
   3.1699999199190643E-002   1.1885285523679310     
   3.1799999196664430E-002   1.1891027950540807     
   3.1899999194138218E-002   1.1896769110133421     
   3.1999999191612005E-002   1.1902509002653170     
   3.2099999189085793E-002   1.1908247628296054     
   3.2199999186559580E-002   1.1913984987258039     
   3.2299999184033368E-002   1.1919721079735068     
   3.2399999181507155E-002   1.1925455905923064     
   3.2499999178980943E-002   1.1931189466017909     
   3.2599999176454730E-002   1.1936921760215469     
   3.2699999173928518E-002   1.1942652788711583     
   3.2799999171402305E-002   1.1948382551702057     
   3.2899999168876093E-002   1.1954111049382679     
   3.2999999166349880E-002   1.1959838281949207     
   3.3099999163823668E-002   1.1965564249597367     
   3.3199999161297455E-002   1.1971288952522867     
   3.3299999158771243E-002   1.1977012390921387     
   3.3399999156245030E-002   1.1982734564988573     
   3.3499999153718818E-002   1.1988455474920054     
   3.3599999151192605E-002   1.1994175120911428     
   3.3699999148666393E-002   1.1999893503158263     
   3.3799999146140181E-002   1.2005610621856111     
   3.3899999143613968E-002   1.2011326477200486     
   3.3999999141087756E-002   1.2017041069386885     
   3.4099999138561543E-002   1.2022754398610769     
   3.4199999136035331E-002   1.2028466465067580     
   3.4299999133509118E-002   1.2034177268952733     
   3.4399999130982906E-002   1.2039886810461611     
   3.4499999128456693E-002   1.2045595089789578     
   3.4599999125930481E-002   1.2051302107131967     
   3.4699999123404268E-002   1.2057007862684084     
   3.4799999120878056E-002   1.2062712356641210     
   3.4899999118351843E-002   1.2068415589198600     
   3.4999999115825631E-002   1.2074117560551485     
   3.5099999113299418E-002   1.2079818270895060     
   3.5199999110773206E-002   1.2085517720424508     
   3.5299999108246993E-002   1.2091215909334971     
   3.5399999105720781E-002   1.2096912837821576     
   3.5499999103194568E-002   1.2102608506079418     
   3.5599999100668356E-002   1.2108302914303564     
   3.5699999098142143E-002   1.2113996062689059     
   3.5799999095615931E-002   1.2119687951430922     
   3.5899999093089718E-002   1.2125378580724140     
   3.5999999090563506E-002   1.2131067950763676     
   3.6099999088037293E-002   1.2136756061744474     
   3.6199999085511081E-002   1.2142442913861438     
   3.6299999082984868E-002   1.2148128507309455     
   3.6399999080458656E-002   1.2153812842283385     
   3.6499999077932443E-002   1.2159495918978058     
   3.6599999075406231E-002   1.2165177737588282     
   3.6699999072880019E-002   1.2170858298308835     
   3.6799999070353806E-002   1.2176537601334467     
   3.6899999067827594E-002   1.2182215646859909     
   3.6999999065301381E-002   1.2187892435079859     
   3.7099999062775169E-002   1.2193567966188990     
   3.7199999060248956E-002   1.2199242240381951     
   3.7299999057722744E-002   1.2204915257853362     
   3.7399999055196531E-002   1.2210587018797816     
   3.7499999052670319E-002   1.2216257523409886     
   3.7599999050144106E-002   1.2221926771884111     
   3.7699999047617894E-002   1.2227594764415006     
   3.7799999045091681E-002   1.2233261501197061     
   3.7899999042565469E-002   1.2238926982424740     
   3.7999999040039256E-002   1.2244591208292479     
   3.8099999037513044E-002   1.2250254178994686     
   3.8199999034986831E-002   1.2255915894725748     
   3.8299999032460619E-002   1.2261576355680024     
   3.8399999029934406E-002   1.2267235562051839     
   3.8499999027408194E-002   1.2272893514035503     
   3.8599999024881981E-002   1.2278550211825296     
   3.8699999022355769E-002   1.2284205655615466     
   3.8799999019829556E-002   1.2289859845600242     
   3.8899999017303344E-002   1.2295512781973821     
   3.8999999014777131E-002   1.2301164464930379     
   3.9099999012250919E-002   1.2306814894664062     
   3.9199999009724706E-002   1.2312464071368991     
   3.9299999007198494E-002   1.2318111995239263     
   3.9399999004672281E-002   1.2323758666468945     
   3.9499999002146069E-002   1.2329404085252074     
   3.9599998999619856E-002   1.2335048251782670     
   3.9699998997093644E-002   1.2340691166254725     
   3.9799998994567432E-002   1.2346332828862199     
   3.9899998992041219E-002   1.2351973239799028     
   3.9999998989515007E-002   1.2357612399259124     
   4.0099998986988794E-002   1.2363250307436373     
   4.0199998984462582E-002   1.2368886964524628     
   4.0299998981936369E-002   1.2374522370717727     
   4.0399998979410157E-002   1.2380156526209471     
   4.0499998976883944E-002   1.2385789431193643     
   4.0599998974357732E-002   1.2391421085863994     
   4.0699998971831519E-002   1.2397051490414250     
   4.0799998969305307E-002   1.2402680645038113     
   4.0899998966779094E-002   1.2408308549929257     
   4.0999998964252882E-002   1.2413935205281332     
   4.1099998961726669E-002   1.2419560611287954     
   4.1199998959200457E-002   1.2425184768142725     
   4.1299998956674244E-002   1.2430807676039215     
   4.1399998954148032E-002   1.2436429335170960     
   4.1499998951621819E-002   1.2442049745731483     
   4.1599998949095607E-002   1.2447668907914273     
   4.1699998946569394E-002   1.2453286821912795     
   4.1799998944043182E-002   1.2458903487920487     
   4.1899998941516969E-002   1.2464518906130762     
   4.1999998938990757E-002   1.2470133076737004     
   4.2099998936464544E-002   1.2475745999932575     
   4.2199998933938332E-002   1.2481357675910805     
   4.2299998931412119E-002   1.2486968104865008     
   4.2399998928885907E-002   1.2492577286988458     
   4.2499998926359694E-002   1.2498185222474414     
   4.2599998923833482E-002   1.2503791911516104     
   4.2699998921307269E-002   1.2509397354306730     
   4.2799998918781057E-002   1.2515001551039471     
   4.2899998916254845E-002   1.2520604501907473     
   4.2999998913728632E-002   1.2526206207103863     
   4.3099998911202420E-002   1.2531806666821739     
   4.3199998908676207E-002   1.2537405881254171     
   4.3299998906149995E-002   1.2543003850594208     
   4.3399998903623782E-002   1.2548600575034865     
   4.3499998901097570E-002   1.2554196054769138     
   4.3599998898571357E-002   1.2559790289989996     
   4.3699998896045145E-002   1.2565383280890376     
   4.3799998893518932E-002   1.2570975027663196     
   4.3899998890992720E-002   1.2576565530501340     
   4.3999998888466507E-002   1.2582154789597677     
   4.4099998885940295E-002   1.2587742805145041     
   4.4199998883414082E-002   1.2593329577336241     
   4.4299998880887870E-002   1.2598915106364061     
   4.4399998878361657E-002   1.2604499392421262     
   4.4499998875835445E-002   1.2610082435700574     
   4.4599998873309232E-002   1.2615664236394704     
   4.4699998870783020E-002   1.2621244794696329     
   4.4799998868256807E-002   1.2626824110798105     
   4.4899998865730595E-002   1.2632402184892659     
   4.4999998863204382E-002   1.2637979017172594     
   4.5099998860678170E-002   1.2643554607830483     
   4.5199998858151957E-002   1.2649128957058875     
   4.5299998855625745E-002   1.2654702065050296     
   4.5399998853099532E-002   1.2660273931997239     
   4.5499998850573320E-002   1.2665844558092179     
   4.5599998848047107E-002   1.2671413943527559     
   4.5699998845520895E-002   1.2676982088495796     
   4.5799998842994682E-002   1.2682548993189287     
   4.5899998840468470E-002   1.2688114657800396     
   4.5999998837942258E-002   1.2693679082521465     
   4.6099998835416045E-002   1.2699242267544806     
   4.6199998832889833E-002   1.2704804213062708     
   4.6299998830363620E-002   1.2710364919267436     
   4.6399998827837408E-002   1.2715924386351225     
   4.6499998825311195E-002   1.2721482614506283     
   4.6599998822784983E-002   1.2727039603924799     
   4.6699998820258770E-002   1.2732595354798928     
   4.6799998817732558E-002   1.2738149867320800     
   4.6899998815206345E-002   1.2743703141682525     
   4.6999998812680133E-002   1.2749255178076182     
   4.7099998810153920E-002   1.2754805976693824     
   4.7199998807627708E-002   1.2760355537727481     
   4.7299998805101495E-002   1.2765903861369154     
   4.7399998802575283E-002   1.2771450947810818     
   4.7499998800049070E-002   1.2776996797244426     
   4.7599998797522858E-002   1.2782541409861896     
   4.7699998794996645E-002   1.2788084785855132     
   4.7799998792470433E-002   1.2793626925416002     
   4.7899998789944220E-002   1.2799167828736353     
   4.7999998787418008E-002   1.2804707496008005     
   4.8099998784891795E-002   1.2810245927422756     
   4.8199998782365583E-002   1.2815783123172366     
   4.8299998779839370E-002   1.2821319083448581     
   4.8399998777313158E-002   1.2826853808443119     
   4.8499998774786945E-002   1.2832387298347665     
   4.8599998772260733E-002   1.2837919553353887     
   4.8699998769734520E-002   1.2843450573653421     
   4.8799998767208308E-002   1.2848980359437880     
   4.8899998764682095E-002   1.2854508910898850     
   4.8999998762155883E-002   1.2860036228227891     
   4.9099998759629671E-002   1.2865562311616534     
   4.9199998757103458E-002   1.2871087161256294     
   4.9299998754577246E-002   1.2876610777338646     
   4.9399998752051033E-002   1.2882133160055047     
   4.9499998749524821E-002   1.2887654309596932     
   4.9599998746998608E-002   1.2893174226155701     
   4.9699998744472396E-002   1.2898692909922738     
   4.9799998741946183E-002   1.2904210361089385     
   4.9899998739419971E-002   1.2909726579846978     
   4.9999998736893758E-002   1.2915241566386813     
   5.0099998734367546E-002   1.2920755320900166     
   5.0199998731841333E-002   1.2926267843578285     
   5.0299998729315121E-002   1.2931779134612393     
   5.0399998726788908E-002   1.2937289194193689     
   5.0499998724262696E-002   1.2942798022513338     
   5.0599998721736483E-002   1.2948305619762490     
   5.0699998719210271E-002   1.2953811986132262     
   5.0799998716684058E-002   1.2959317121813747     
   5.0899998714157846E-002   1.2964821026998015     
   5.0999998711631633E-002   1.2970323701876103     
   5.1099998709105421E-002   1.2975825146639031     
   5.1199998706579208E-002   1.2981325361477785     
   5.1299998704052996E-002   1.2986824346583326     
   5.1399998701526783E-002   1.2992322102146598     
   5.1499998699000571E-002   1.2997818628358511     
   5.1599998696474358E-002   1.3003313925409949     
   5.1699998693948146E-002   1.3008807993491773     
   5.1799998691421933E-002   1.3014300832794816     
   5.1899998688895721E-002   1.3019792443509888     
   5.1999998686369509E-002   1.3025282825827771     
   5.2099998683843296E-002   1.3030771979939222     
   5.2199998681317084E-002   1.3036259906034968     
   5.2299998678790871E-002   1.3041746604305722     
   5.2399998676264659E-002   1.3047232074942152     
   5.2499998673738446E-002   1.3052716318134920     
   5.2599998671212234E-002   1.3058199334074652     
   5.2699998668686021E-002   1.3063681122951945     
   5.2799998666159809E-002   1.3069161684957378     
   5.2899998663633596E-002   1.3074641020281499     
   5.2999998661107384E-002   1.3080119129114831     
   5.3099998658581171E-002   1.3085596011647875     
   5.3199998656054959E-002   1.3091071668071101     
   5.3299998653528746E-002   1.3096546098574957     
   5.3399998651002534E-002   1.3102019303349861     
   5.3499998648476321E-002   1.3107491282586212     
   5.3599998645950109E-002   1.3112962036474376     
   5.3699998643423896E-002   1.3118431565204696     
   5.3799998640897684E-002   1.3123899868967488     
   5.3899998638371471E-002   1.3129366947953045     
   5.3999998635845259E-002   1.3134832802351633     
   5.4099998633319046E-002   1.3140297432353494     
   5.4199998630792834E-002   1.3145760838148834     
   5.4299998628266621E-002   1.3151223019927849     
   5.4399998625740409E-002   1.3156683977880701     
   5.4499998623214196E-002   1.3162143712197523     
   5.4599998620687984E-002   1.3167602223068429     
   5.4699998618161771E-002   1.3173059510683500     
   5.4799998615635559E-002   1.3178515575232799     
   5.4899998613109346E-002   1.3183970416906359     
   5.4999998610583134E-002   1.3189424035894186     
   5.5099998608056922E-002   1.3194876432386264     
   5.5199998605530709E-002   1.3200327606572548     
   5.5299998603004497E-002   1.3205777558642970     
   5.5399998600478284E-002   1.3211226288787430     
   5.5499998597952072E-002   1.3216673797195813     
   5.5599998595425859E-002   1.3222120084057969     
   5.5699998592899647E-002   1.3227565149563725     
   5.5799998590373434E-002   1.3233008993902884     
   5.5899998587847222E-002   1.3238451617265219     
   5.5999998585321009E-002   1.3243893019840485     
   5.6099998582794797E-002   1.3249333201818403     
   5.6199998580268584E-002   1.3254772163388675     
   5.6299998577742372E-002   1.3260209904740967     
   5.6399998575216159E-002   1.3265646426064932     
   5.6499998572689947E-002   1.3271081727550194     
   5.6599998570163734E-002   1.3276515809386340     
   5.6699998567637522E-002   1.3281948671762946     
   5.6799998565111309E-002   1.3287380314869557     
   5.6899998562585097E-002   1.3292810738895688     
   5.6999998560058884E-002   1.3298239944030836     
   5.7099998557532672E-002   1.3303667930464464     
   5.7199998555006459E-002   1.3309094698386017     
   5.7299998552480247E-002   1.3314520247984909     
   5.7399998549954034E-002   1.3319944579450529     
   5.7499998547427822E-002   1.3325367692972245     
   5.7599998544901609E-002   1.3330789588739393     
   5.7699998542375397E-002   1.3336210266941286     
   5.7799998539849184E-002   1.3341629727767210     
   5.7899998537322972E-002   1.3347047971406432     
   5.7999998534796759E-002   1.3352464998048181     
   5.8099998532270547E-002   1.3357880807881672     
   5.8199998529744335E-002   1.3363295401096089     
   5.8299998527218122E-002   1.3368708777880591     
   5.8399998524691910E-002   1.3374120938424310     
   5.8499998522165697E-002   1.3379531882916353     
   5.8599998519639485E-002   1.3384941611545806     
   5.8699998517113272E-002   1.3390350124501720     
   5.8799998514587060E-002   1.3395757421973129     
   5.8899998512060847E-002   1.3401163504149038     
   5.8999998509534635E-002   1.3406568371218426     
   5.9099998507008422E-002   1.3411972023370244     
   5.9199998504482210E-002   1.3417374460793425     
   5.9299998501955997E-002   1.3422775683676869     
   5.9399998499429785E-002   1.3428175692209452     
   5.9499998496903572E-002   1.3433574486580024     
   5.9599998494377360E-002   1.3438972066977417     
   5.9699998491851147E-002   1.3444368433590421     
   5.9799998489324935E-002   1.3449763586607819     
   5.9899998486798722E-002   1.3455157526218358     
   5.9999998484272510E-002   1.3460550252610757     
   6.0099998481746297E-002   1.3465941765973717     
   6.0199998479220085E-002   1.3471332066495909     
   6.0299998476693872E-002   1.3476721154365980     
   6.0399998474167660E-002   1.3482109029772551     
   6.0499998471641447E-002   1.3487495692904212     
   6.0599998469115235E-002   1.3492881143949540     
   6.0699998466589022E-002   1.3498265383097074     
   6.0799998464062810E-002   1.3503648410535336     
   6.0899998461536597E-002   1.3509030226452814     
   6.0999998459010385E-002   1.3514410831037980     
   6.1099998456484172E-002   1.3519790224479269     
   6.1199998453957960E-002   1.3525168406965105     
   6.1299998451431748E-002   1.3530545378683874     
   6.1399998448905535E-002   1.3535921139823939     
   6.1499998446379323E-002   1.3541295690573645     
   6.1599998443853110E-002   1.3546669031121299     
   6.1699998441326898E-002   1.3552041161655197     
   6.1799998438800685E-002   1.3557412082363594     
   6.1899998436274473E-002   1.3562781793434731     
   6.1999998433748260E-002   1.3568150295056820     
   6.2099998431222048E-002   1.3573517587418045     
   6.2199998428695835E-002   1.3578883670706567     
   6.2299998426169623E-002   1.3584248545110522     
   6.2399998423643410E-002   1.3589612210818018     
   6.2499998421117198E-002   1.3594974668017139     
   6.2599998418590985E-002   1.3600335916895945     
   6.2699998416064773E-002   1.3605695957642467     
   6.2799998413538560E-002   1.3611054790444712     
   6.2899998411012348E-002   1.3616412415490662     
   6.2999998408486135E-002   1.3621768832968273     
   6.3099998405959923E-002   1.3627124043065479     
   6.3199998403433710E-002   1.3632478045970180     
   6.3299998400907498E-002   1.3637830841870258     
   6.3399998398381285E-002   1.3643182430953571     
   6.3499998395855073E-002   1.3648532813407939     
   6.3599998393328860E-002   1.3653881989421173     
   6.3699998390802648E-002   1.3659229959181047     
   6.3799998388276435E-002   1.3664576722875315     
   6.3899998385750223E-002   1.3669922280691702     
   6.3999998383224010E-002   1.3675266632817911     
   6.4099998380697798E-002   1.3680609779441615     
   6.4199998378171586E-002   1.3685951720750464     
   6.4299998375645373E-002   1.3691292456932089     
   6.4399998373119161E-002   1.3696631988174084     
   6.4499998370592948E-002   1.3701970314664023     
   6.4599998368066736E-002   1.3707307436589455     
   6.4699998365540523E-002   1.3712643354137906     
   6.4799998363014311E-002   1.3717978067496868     
   6.4899998360488098E-002   1.3723311576853816     
   6.4999998357961886E-002   1.3728643882396199     
   6.5099998355435673E-002   1.3733974984311432     
   6.5199998352909461E-002   1.3739304882786916     
   6.5299998350383248E-002   1.3744633578010017     
   6.5399998347857036E-002   1.3749961070168084     
   6.5499998345330823E-002   1.3755287359448434     
   6.5599998342804611E-002   1.3760612446038363     
   6.5699998340278398E-002   1.3765936330125137     
   6.5799998337752186E-002   1.3771259011896000     
   6.5899998335225973E-002   1.3776580491538168     
   6.5999998332699761E-002   1.3781900769238835     
   6.6099998330173548E-002   1.3787219845185168     
   6.6199998327647336E-002   1.3792537719564306     
   6.6299998325121123E-002   1.3797854392563371     
   6.6399998322594911E-002   1.3803169864369447     
   6.6499998320068698E-002   1.3808484135169603     
   6.6599998317542486E-002   1.3813797205150875     
   6.6699998315016273E-002   1.3819109074500284     
   6.6799998312490061E-002   1.3824419743404812     
   6.6899998309963848E-002   1.3829729212051427     
   6.6999998307437636E-002   1.3835037480627062     
   6.7099998304911423E-002   1.3840344549318637     
   6.7199998302385211E-002   1.3845650418313036     
   6.7299998299858999E-002   1.3850955087797117     
   6.7399998297332786E-002   1.3856258557957724     
   6.7499998294806574E-002   1.3861560828981663     
   6.7599998292280361E-002   1.3866861901055723     
   6.7699998289754149E-002   1.3872161774366663     
   6.7799998287227936E-002   1.3877460449101218     
   6.7899998284701724E-002   1.3882757925446101     
   6.7999998282175511E-002   1.3888054203587992     
   6.8099998279649299E-002   1.3893349283713552     
   6.8199998277123086E-002   1.3898643166009415     
   6.8299998274596874E-002   1.3903935850662190     
   6.8399998272070661E-002   1.3909227337858459     
   6.8499998269544449E-002   1.3914517627784779     
   6.8599998267018236E-002   1.3919806720627683     
   6.8699998264492024E-002   1.3925094616573683     
   6.8799998261965811E-002   1.3930381315809253     
   6.8899998259439599E-002   1.3935666818520853     
   6.8999998256913386E-002   1.3940951124894916     
   6.9099998254387174E-002   1.3946234235117845     
   6.9199998251860961E-002   1.3951516149376022     
   6.9299998249334749E-002   1.3956796867855801     
   6.9399998246808536E-002   1.3962076390743512     
   6.9499998244282324E-002   1.3967354718225460     
   6.9599998241756111E-002   1.3972631850487924     
   6.9699998239229899E-002   1.3977907787717159     
   6.9799998236703686E-002   1.3983182530099394     
   6.9899998234177474E-002   1.3988456077820828     
   6.9999998231651261E-002   1.3993728431067645     
   7.0099998229125049E-002   1.3998999590025993     
   7.0199998226598836E-002   1.4004269554882003     
   7.0299998224072624E-002   1.4009538325821775     
   7.0399998221546412E-002   1.4014805903031387     
   7.0499998219020199E-002   1.4020072286696887     
   7.0599998216493987E-002   1.4025337477004309     
   7.0699998213967774E-002   1.4030601474139648     
   7.0799998211441562E-002   1.4035864278288881     
   7.0899998208915349E-002   1.4041125889637960     
   7.0999998206389137E-002   1.4046386308372809     
   7.1099998203862924E-002   1.4051645534679329     
   7.1199998201336712E-002   1.4056903568743393     
   7.1299998198810499E-002   1.4062160410750855     
   7.1399998196284287E-002   1.4067416060887534     
   7.1499998193758074E-002   1.4072670519339232     
   7.1599998191231862E-002   1.4077923786291719     
   7.1699998188705649E-002   1.4083175861930752     
   7.1799998186179437E-002   1.4088426746442047     
   7.1899998183653224E-002   1.4093676440011305     
   7.1999998181127012E-002   1.4098924942824196     
   7.2099998178600799E-002   1.4104172255066370     
   7.2199998176074587E-002   1.4109418376923450     
   7.2299998173548374E-002   1.4114663308581032     
   7.2399998171022162E-002   1.4119907050224692     
   7.2499998168495949E-002   1.4125149602039966     
   7.2599998165969737E-002   1.4130390964212387     
   7.2699998163443524E-002   1.4135631136927449     
   7.2799998160917312E-002   1.4140870120370621     
   7.2899998158391099E-002   1.4146107914727348     
   7.2999998155864887E-002   1.4151344520183051     
   7.3099998153338674E-002   1.4156579936923130     
   7.3199998150812462E-002   1.4161814165132951     
   7.3299998148286249E-002   1.4167047204997860     
   7.3399998145760037E-002   1.4172279056703179     
   7.3499998143233825E-002   1.4177509720434203     
   7.3599998140707612E-002   1.4182739196376195     
   7.3699998138181400E-002   1.4187967484714408     
   7.3799998135655187E-002   1.4193194585634057     
   7.3899998133128975E-002   1.4198420499320337     
   7.3999998130602762E-002   1.4203645225958419     
   7.4099998128076550E-002   1.4208868765733444     
   7.4199998125550337E-002   1.4214091118830530     
   7.4299998123024125E-002   1.4219312285434778     
   7.4399998120497912E-002   1.4224532265731242     
   7.4499998117971700E-002   1.4229751059904980     
   7.4599998115445487E-002   1.4234968668141004     
   7.4699998112919275E-002   1.4240185090624304     
   7.4799998110393062E-002   1.4245400327539852     
   7.4899998107866850E-002   1.4250614379072593     
   7.4999998105340637E-002   1.4255827245407438     
   7.5099998102814425E-002   1.4261038926729284     
   7.5199998100288212E-002   1.4266249423222994     
   7.5299998097762000E-002   1.4271458735073415     
   7.5399998095235787E-002   1.4276666862465359     
   7.5499998092709575E-002   1.4281873805583625     
   7.5599998090183362E-002   1.4287079564612974     
   7.5699998087657150E-002   1.4292284139738149     
   7.5799998085130937E-002   1.4297487531143869     
   7.5899998082604725E-002   1.4302689739014820     
   7.5999998080078512E-002   1.4307890763535678     
   7.6099998077552300E-002   1.4313090604891072     
   7.6199998075026087E-002   1.4318289263265629     
   7.6299998072499875E-002   1.4323486738843931     
   7.6399998069973662E-002   1.4328683031810552     
   7.6499998067447450E-002   1.4333878142350029     
   7.6599998064921238E-002   1.4339072070646879     
   7.6699998062395025E-002   1.4344264816885592     
   7.6799998059868813E-002   1.4349456381250634     
   7.6899998057342600E-002   1.4354646763926444     
   7.6999998054816388E-002   1.4359835965097441     
   7.7099998052290175E-002   1.4365023984948013     
   7.7199998049763963E-002   1.4370210823662528     
   7.7299998047237750E-002   1.4375396481425322     
   7.7399998044711538E-002   1.4380580958420714     
   7.7499998042185325E-002   1.4385764254832996     
   7.7599998039659113E-002   1.4390946370846425     
   7.7699998037132900E-002   1.4396127306645248     
   7.7799998034606688E-002   1.4401307062413682     
   7.7899998032080475E-002   1.4406485638335913     
   7.7999998029554263E-002   1.4411663034596103     
   7.8099998027028050E-002   1.4416839251378399     
   7.8199998024501838E-002   1.4422014288866911     
   7.8299998021975625E-002   1.4427188147245733     
   7.8399998019449413E-002   1.4432360826698927     
   7.8499998016923200E-002   1.4437532327410534     
   7.8599998014396988E-002   1.4442702649564569     
   7.8699998011870775E-002   1.4447871793345022     
   7.8799998009344563E-002   1.4453039758935855     
   7.8899998006818350E-002   1.4458206546521011     
   7.8999998004292138E-002   1.4463372156284402     
   7.9099998001765925E-002   1.4468536588409924     
   7.9199997999239713E-002   1.4473699843081438     
   7.9299997996713500E-002   1.4478861920482782     
   7.9399997994187288E-002   1.4484022820797771     
   7.9499997991661076E-002   1.4489182544210197     
   7.9599997989134863E-002   1.4494341090903826     
   7.9699997986608651E-002   1.4499498461062399     
   7.9799997984082438E-002   1.4504654654869624     
   7.9899997981556226E-002   1.4509809672509197     
   7.9999997979030013E-002   1.4514963514164780     
   8.0099997976503801E-002   1.4520116180020015     
   8.0199997973977588E-002   1.4525267670258517     
   8.0299997971451376E-002   1.4530417985063875     
   8.0399997968925163E-002   1.4535567124619653     
   8.0499997966398951E-002   1.4540715089109393     
   8.0599997963872738E-002   1.4545861878716611     
   8.0699997961346526E-002   1.4551007493624795     
   8.0799997958820313E-002   1.4556151934017412     
   8.0899997956294101E-002   1.4561295200077899     
   8.0999997953767888E-002   1.4566437291989676     
   8.1099997951241676E-002   1.4571578209936131     
   8.1199997948715463E-002   1.4576717954100633     
   8.1299997946189251E-002   1.4581856524666517     
   8.1399997943663038E-002   1.4586993921817104     
   8.1499997941136826E-002   1.4592130145735680     
   8.1599997938610613E-002   1.4597265196605513     
   8.1699997936084401E-002   1.4602399074609846     
   8.1799997933558188E-002   1.4607531779931890     
   8.1899997931031976E-002   1.4612663312754841     
   8.1999997928505763E-002   1.4617793673261865     
   8.2099997925979551E-002   1.4622922861636098     
   8.2199997923453338E-002   1.4628050878060661     
   8.2299997920927126E-002   1.4633177722718647     
   8.2399997918400913E-002   1.4638303395793115     
   8.2499997915874701E-002   1.4643427897467114     
   8.2599997913348489E-002   1.4648551227923661     
   8.2699997910822276E-002   1.4653673387345738     
   8.2799997908296064E-002   1.4658794375916324     
   8.2899997905769851E-002   1.4663914193818357     
   8.2999997903243639E-002   1.4669032841234753     
   8.3099997900717426E-002   1.4674150318348405     
   8.3199997898191214E-002   1.4679266625342178     
   8.3299997895665001E-002   1.4684381762398919     
   8.3399997893138789E-002   1.4689495729701445     
   8.3499997890612576E-002   1.4694608527432544     
   8.3599997888086364E-002   1.4699720155774989     
   8.3699997885560151E-002   1.4704830614911524     
   8.3799997883033939E-002   1.4709939905024862     
   8.3899997880507726E-002   1.4715048026297701     
   8.3999997877981514E-002   1.4720154978912707     
   8.4099997875455301E-002   1.4725260763052528     
   8.4199997872929089E-002   1.4730365378899779     
   8.4299997870402876E-002   1.4735468826637055     
   8.4399997867876664E-002   1.4740571106446922     
   8.4499997865350451E-002   1.4745672218511929     
   8.4599997862824239E-002   1.4750772163014596     
   8.4699997860298026E-002   1.4755870940137417     
   8.4799997857771814E-002   1.4760968550062858     
   8.4899997855245601E-002   1.4766064992973369     
   8.4999997852719389E-002   1.4771160269051369     
   8.5099997850193176E-002   1.4776254378479252     
   8.5199997847666964E-002   1.4781347321439389     
   8.5299997845140751E-002   1.4786439098114128     
   8.5399997842614539E-002   1.4791529708685787     
   8.5499997840088326E-002   1.4796619153336663     
   8.5599997837562114E-002   1.4801707432249032     
   8.5699997835035902E-002   1.4806794545605133     
   8.5799997832509689E-002   1.4811880493587195     
   8.5899997829983477E-002   1.4816965276377410     
   8.5999997827457264E-002   1.4822048894157951     
   8.6099997824931052E-002   1.4827131347110973     
   8.6199997822404839E-002   1.4832212635418587     
   8.6299997819878627E-002   1.4837292759262897     
   8.6399997817352414E-002   1.4842371718825977     
   8.6499997814826202E-002   1.4847449514289877     
   8.6599997812299989E-002   1.4852526145836613     
   8.6699997809773777E-002   1.4857601613648193     
   8.6799997807247564E-002   1.4862675917906585     
   8.6899997804721352E-002   1.4867749058793740     
   8.6999997802195139E-002   1.4872821036491584     
   8.7099997799668927E-002   1.4877891851182015     
   8.7199997797142714E-002   1.4882961503046910     
   8.7299997794616502E-002   1.4888029992268117     
   8.7399997792090289E-002   1.4893097319027466     
   8.7499997789564077E-002   1.4898163483506752     
   8.7599997787037864E-002   1.4903228485887756     
   8.7699997784511652E-002   1.4908292326352228     
   8.7799997781985439E-002   1.4913355005081894     
   8.7899997779459227E-002   1.4918416522258457     
   8.7999997776933014E-002   1.4923476878063591     
   8.8099997774406802E-002   1.4928536072678953     
   8.8199997771880589E-002   1.4933594106286172     
   8.8299997769354377E-002   1.4938650979066845     
   8.8399997766828164E-002   1.4943706691202554     
   8.8499997764301952E-002   1.4948761242874853     
   8.8599997761775739E-002   1.4953814634265270     
   8.8699997759249527E-002   1.4958866865555311     
   8.8799997756723315E-002   1.4963917936926452     
   8.8899997754197102E-002   1.4968967848560151     
   8.8999997751670890E-002   1.4974016600637836     
   8.9099997749144677E-002   1.4979064193340916     
   8.9199997746618465E-002   1.4984110626850771     
   8.9299997744092252E-002   1.4989155901348754     
   8.9399997741566040E-002   1.4994200017016199     
   8.9499997739039827E-002   1.4999242974034412     
   8.9599997736513615E-002   1.5004284772584675     
   8.9699997733987402E-002   1.5009325412848247     
   8.9799997731461190E-002   1.5014364895006360     
   8.9899997728934977E-002   1.5019403219240219     
   8.9999997726408765E-002   1.5024440385731015     
   9.0099997723882552E-002   1.5029476394659897     
   9.0199997721356340E-002   1.5034511246208009     
   9.0299997718830127E-002   1.5039544940556455     
   9.0399997716303915E-002   1.5044577477886318     
   9.0499997713777702E-002   1.5049608858378662     
   9.0599997711251490E-002   1.5054639082214525     
   9.0699997708725277E-002   1.5059668149574912     
   9.0799997706199065E-002   1.5064696060640812     
   9.0899997703672852E-002   1.5069722815593187     
   9.0999997701146640E-002   1.5074748414612971     
   9.1099997698620427E-002   1.5079772857881082     
   9.1199997696094215E-002   1.5084796145578403     
   9.1299997693568002E-002   1.5089818277885803     
   9.1399997691041790E-002   1.5094839254984111     
   9.1499997688515577E-002   1.5099859077054147     
   9.1599997685989365E-002   1.5104877744276703     
   9.1699997683463152E-002   1.5109895256832542     
   9.1799997680936940E-002   1.5114911614902400     
   9.1899997678410728E-002   1.5119926818666996     
   9.1999997675884515E-002   1.5124940868307020     
   9.2099997673358303E-002   1.5129953764003141     
   9.2199997670832090E-002   1.5134965505935996     
   9.2299997668305878E-002   1.5139976094286203     
   9.2399997665779665E-002   1.5144985529234360     
   9.2499997663253453E-002   1.5149993810961029     
   9.2599997660727240E-002   1.5155000939646754     
   9.2699997658201028E-002   1.5160006915472057     
   9.2799997655674815E-002   1.5165011738617431     
   9.2899997653148603E-002   1.5170015409263344     
   9.2999997650622390E-002   1.5175017927590246     
   9.3099997648096178E-002   1.5180019293778553     
   9.3199997645569965E-002   1.5185019508008661     
   9.3299997643043753E-002   1.5190018570460944     
   9.3399997640517540E-002   1.5195016481315744     
   9.3499997637991328E-002   1.5200013240753392     
   9.3599997635465115E-002   1.5205008848954173     
   9.3699997632938903E-002   1.5210003306098372     
   9.3799997630412690E-002   1.5214996612366236     
   9.3899997627886478E-002   1.5219988767937984     
   9.3999997625360265E-002   1.5224979772993819     
   9.4099997622834053E-002   1.5229969627713915     
   9.4199997620307840E-002   1.5234958332278428     
   9.4299997617781628E-002   1.5239945886867474     
   9.4399997615255415E-002   1.5244932291661160     
   9.4499997612729203E-002   1.5249917546839564     
   9.4599997610202990E-002   1.5254901652582737     
   9.4699997607676778E-002   1.5259884609070706     
   9.4799997605150566E-002   1.5264866416483478     
   9.4899997602624353E-002   1.5269847075001026     
   9.4999997600098141E-002   1.5274826584803312     
   9.5099997597571928E-002   1.5279804946070263     
   9.5199997595045716E-002   1.5284782158981778     
   9.5299997592519503E-002   1.5289758223717747     
   9.5399997589993291E-002   1.5294733140458023     
   9.5499997587467078E-002   1.5299706909382440     
   9.5599997584940866E-002   1.5304679530670797     
   9.5699997582414653E-002   1.5309651004502891     
   9.5799997579888441E-002   1.5314621331058467     
   9.5899997577362228E-002   1.5319590510517269     
   9.5999997574836016E-002   1.5324558543058999     
   9.6099997572309803E-002   1.5329525428863349     
   9.6199997569783591E-002   1.5334491168109974     
   9.6299997567257378E-002   1.5339455760978515     
   9.6399997564731166E-002   1.5344419207648581     
   9.6499997562204953E-002   1.5349381508299755     
   9.6599997559678741E-002   1.5354342663111611     
   9.6699997557152528E-002   1.5359302672263677     
   9.6799997554626316E-002   1.5364261535935473     
   9.6899997552100103E-002   1.5369219254306481     
   9.6999997549573891E-002   1.5374175827556176     
   9.7099997547047678E-002   1.5379131255863994     
   9.7199997544521466E-002   1.5384085539409349     
   9.7299997541995253E-002   1.5389038678371634     
   9.7399997539469041E-002   1.5393990672930218     
   9.7499997536942828E-002   1.5398941523264442     
   9.7599997534416616E-002   1.5403891229553626     
   9.7699997531890403E-002   1.5408839791977063     
   9.7799997529364191E-002   1.5413787210714023     
   9.7899997526837979E-002   1.5418733485943750     
   9.7999997524311766E-002   1.5423678617845464     
   9.8099997521785554E-002   1.5428622606598368     
   9.8199997519259341E-002   1.5433565452381626     
   9.8299997516733129E-002   1.5438507155374388     
   9.8399997514206916E-002   1.5443447715755778     
   9.8499997511680704E-002   1.5448387133704895     
   9.8599997509154491E-002   1.5453325409400813     
   9.8699997506628279E-002   1.5458262543022583     
   9.8799997504102066E-002   1.5463198534749227     
   9.8899997501575854E-002   1.5468133384759750     
   9.8999997499049641E-002   1.5473067093233128     
   9.9099997496523429E-002   1.5477999660348312     
   9.9199997493997216E-002   1.5482931086284231     
   9.9299997491471004E-002   1.5487861371219789     
   9.9399997488944791E-002   1.5492790515333863     
   9.9499997486418579E-002   1.5497718518805312     
   9.9599997483892366E-002   1.5502645381812967     
   9.9699997481366154E-002   1.5507571104535627     
   9.9799997478839941E-002   1.5512495687152081     
   9.9899997476313729E-002   1.5517419129841086     
   9.9999997473787516E-002   1.5522341432781370     
  0.10009999747126130        1.5527262596151648     
  0.10019999746873509        1.5532182620130599     
  0.10029999746620888        1.5537101504896886     
  0.10039999746368267        1.5542019250629147     
  0.10049999746115645        1.5546935857505990     
  0.10059999745863024        1.5551851325706005     
  0.10069999745610403        1.5556765655407752     
  0.10079999745357782        1.5561678846789770     
  0.10089999745105160        1.5566590900030572     
  0.10099999744852539        1.5571501815308655     
  0.10109999744599918        1.5576411592802475     
  0.10119999744347297        1.5581320232690481     
  0.10129999744094675        1.5586227735151081     
  0.10139999743842054        1.5591134100362676     
  0.10149999743589433        1.5596039328503633     
  0.10159999743336812        1.5600943419752293     
  0.10169999743084190        1.5605846374286978     
  0.10179999742831569        1.5610748192285979     
  0.10189999742578948        1.5615648873927572     
  0.10199999742326327        1.5620548419390006     
  0.10209999742073705        1.5625446828851497     
  0.10219999741821084        1.5630344102490246     
  0.10229999741568463        1.5635240240484429     
  0.10239999741315842        1.5640135243012190     
  0.10249999741063220        1.5645029110251660     
  0.10259999740810599        1.5649921842380943     
  0.10269999740557978        1.5654813439578108     
  0.10279999740305357        1.5659703902021209     
  0.10289999740052735        1.5664593229888282     
  0.10299999739800114        1.5669481423357321     
  0.10309999739547493        1.5674368482606313     
  0.10319999739294872        1.5679254407813208     
  0.10329999739042250        1.5684139199155944     
  0.10339999738789629        1.5689022856812422     
  0.10349999738537008        1.5693905380960529     
  0.10359999738284387        1.5698786771778122     
  0.10369999738031765        1.5703667029443036     
  0.10379999737779144        1.5708546154133078     
  0.10389999737526523        1.5713424146026038     
  0.10399999737273902        1.5718301005299677     
  0.10409999737021280        1.5723176732131732     
  0.10419999736768659        1.5728051326699917     
  0.10429999736516038        1.5732924789181921     
  0.10439999736263417        1.5737797119755403     
  0.10449999736010795        1.5742668318598014     
  0.10459999735758174        1.5747538385887361     
  0.10469999735505553        1.5752407321801045     
  0.10479999735252932        1.5757275126516626     
  0.10489999735000310        1.5762141800211649     
  0.10499999734747689        1.5767007343063639     
  0.10509999734495068        1.5771871755250086     
  0.10519999734242447        1.5776735036948466     
  0.10529999733989825        1.5781597188336225     
  0.10539999733737204        1.5786458209590781     
  0.10549999733484583        1.5791318100889535     
  0.10559999733231962        1.5796176862409865     
  0.10569999732979340        1.5801034494329120     
  0.10579999732726719        1.5805890996824621     
  0.10589999732474098        1.5810746370073676     
  0.10599999732221477        1.5815600614253564     
  0.10609999731968855        1.5820453729541528     
  0.10619999731716234        1.5825305716114810     
  0.10629999731463613        1.5830156574150611     
  0.10639999731210992        1.5835006303826109     
  0.10649999730958370        1.5839854905318467     
  0.10659999730705749        1.5844702378804811     
  0.10669999730453128        1.5849548724462257     
  0.10679999730200507        1.5854393942467881     
  0.10689999729947885        1.5859238032998750     
  0.10699999729695264        1.5864080996231902     
  0.10709999729442643        1.5868922832344343     
  0.10719999729190022        1.5873763541513062     
  0.10729999728937401        1.5878603123915027     
  0.10739999728684779        1.5883441579727176     
  0.10749999728432158        1.5888278909126423     
  0.10759999728179537        1.5893115112289662     
  0.10769999727926916        1.5897950189393759     
  0.10779999727674294        1.5902784140615558     
  0.10789999727421673        1.5907616966131881     
  0.10799999727169052        1.5912448666119516     
  0.10809999726916431        1.5917279240755242     
  0.10819999726663809        1.5922108690215802     
  0.10829999726411188        1.5926937014677915     
  0.10839999726158567        1.5931764214318287     
  0.10849999725905946        1.5936590289313588     
  0.10859999725653324        1.5941415239840471     
  0.10869999725400703        1.5946239066075563     
  0.10879999725148082        1.5951061768195465     
  0.10889999724895461        1.5955883346376751     
  0.10899999724642839        1.5960703800795986     
  0.10909999724390218        1.5965523131629693     
  0.10919999724137597        1.5970341339054377     
  0.10929999723884976        1.5975158423246523     
  0.10939999723632354        1.5979974384382587     
  0.10949999723379733        1.5984789222639004     
  0.10959999723127112        1.5989602938192187     
  0.10969999722874491        1.5994415531218515     
  0.10979999722621869        1.5999227001894358     
  0.10989999722369248        1.6004037350396048     
  0.10999999722116627        1.6008846576899898     
  0.11009999721864006        1.6013654681582201     
  0.11019999721611384        1.6018461664619226     
  0.11029999721358763        1.6023267526187204     
  0.11039999721106142        1.6028072266462361     
  0.11049999720853521        1.6032875885620888     
  0.11059999720600899        1.6037678383838956     
  0.11069999720348278        1.6042479761292707     
  0.11079999720095657        1.6047280018158265     
  0.11089999719843036        1.6052079154611727     
  0.11099999719590414        1.6056877170829169     
  0.11109999719337793        1.6061674066986635     
  0.11119999719085172        1.6066469843260156     
  0.11129999718832551        1.6071264499825728     
  0.11139999718579929        1.6076058036859335     
  0.11149999718327308        1.6080850454536924     
  0.11159999718074687        1.6085641753034428     
  0.11169999717822066        1.6090431932527751     
  0.11179999717569444        1.6095220993192776     
  0.11189999717316823        1.6100008935205359     
  0.11199999717064202        1.6104795758741335     
  0.11209999716811581        1.6109581463976510     
  0.11219999716558959        1.6114366051086675     
  0.11229999716306338        1.6119149520247587     
  0.11239999716053717        1.6123931871634984     
  0.11249999715801096        1.6128713105424581     
  0.11259999715548474        1.6133493221792070     
  0.11269999715295853        1.6138272220913112     
  0.11279999715043232        1.6143050102963350     
  0.11289999714790611        1.6147826868118405     
  0.11299999714537989        1.6152602516553869     
  0.11309999714285368        1.6157377048445305     
  0.11319999714032747        1.6162150463968272     
  0.11329999713780126        1.6166922763298284     
  0.11339999713527504        1.6171693946610839     
  0.11349999713274883        1.6176464014081411     
  0.11359999713022262        1.6181232965885455     
  0.11369999712769641        1.6186000802198390     
  0.11379999712517019        1.6190767523195624     
  0.11389999712264398        1.6195533129052533     
  0.11399999712011777        1.6200297619944473     
  0.11409999711759156        1.6205060996046774     
  0.11419999711506534        1.6209823257534739     
  0.11429999711253913        1.6214584404583658     
  0.11439999711001292        1.6219344437368781     
  0.11449999710748671        1.6224103356065349     
  0.11459999710496049        1.6228861160848573     
  0.11469999710243428        1.6233617851893638     
  0.11479999709990807        1.6238373429375708     
  0.11489999709738186        1.6243127893469924     
  0.11499999709485564        1.6247881244351396     
  0.11509999709232943        1.6252633482195220     
  0.11519999708980322        1.6257384607176464     
  0.11529999708727701        1.6262134619470170     
  0.11539999708475079        1.6266883519251358     
  0.11549999708222458        1.6271631306695025     
  0.11559999707969837        1.6276377981976142     
  0.11569999707717216        1.6281123545269660     
  0.11579999707464594        1.6285867996750498     
  0.11589999707211973        1.6290611336593561     
  0.11599999706959352        1.6295353564973722     
  0.11609999706706731        1.6300094682065840     
  0.11619999706454109        1.6304834688044738     
  0.11629999706201488        1.6309573583085224     
  0.11639999705948867        1.6314311367362078     
  0.11649999705696246        1.6319048041050057     
  0.11659999705443624        1.6323783604323896     
  0.11669999705191003        1.6328518057358306     
  0.11679999704938382        1.6333251400327971     
  0.11689999704685761        1.6337983633407549     
  0.11699999704433139        1.6342714756771686     
  0.11709999704180518        1.6347444770594990     
  0.11719999703927897        1.6352173675052057     
  0.11729999703675276        1.6356901470317449     
  0.11739999703422654        1.6361628156565713     
  0.11749999703170033        1.6366353733971364     
  0.11759999702917412        1.6371078202708900     
  0.11769999702664791        1.6375801562952792     
  0.11779999702412169        1.6380523814877488     
  0.11789999702159548        1.6385244958657408     
  0.11799999701906927        1.6389964994466959     
  0.11809999701654306        1.6394683922480513     
  0.11819999701401684        1.6399401742872424     
  0.11829999701149063        1.6404118455817018     
  0.11839999700896442        1.6408834061488604     
  0.11849999700643821        1.6413548560061457     
  0.11859999700391199        1.6418261951709843     
  0.11869999700138578        1.6422974236607988     
  0.11879999699885957        1.6427685414930107     
  0.11889999699633336        1.6432395486850380     
  0.11899999699380714        1.6437104452542974     
  0.11909999699128093        1.6441812312182027     
  0.11919999698875472        1.6446519065941652     
  0.11929999698622851        1.6451224713995940     
  0.11939999698370229        1.6455929256518962     
  0.11949999698117608        1.6460632693684756     
  0.11959999697864987        1.6465335025667343     
  0.11969999697612366        1.6470036252640723     
  0.11979999697359744        1.6474736374778864     
  0.11989999697107123        1.6479435392255717     
  0.11999999696854502        1.6484133305245203     
  0.12009999696601881        1.6488830113921227     
  0.12019999696349259        1.6493525818457664     
  0.12029999696096638        1.6498220419028369     
  0.12039999695844017        1.6502913915807169     
  0.12049999695591396        1.6507606308967873     
  0.12059999695338774        1.6512297598684260     
  0.12069999695086153        1.6516987785130093     
  0.12079999694833532        1.6521676868479103     
  0.12089999694580911        1.6526364848905004     
  0.12099999694328289        1.6531051726581483     
  0.12109999694075668        1.6535737501682197     
  0.12119999693823047        1.6540422174380798     
  0.12129999693570426        1.6545105744850896     
  0.12139999693317804        1.6549788213266081     
  0.12149999693065183        1.6554469579799926     
  0.12159999692812562        1.6559149844625973     
  0.12169999692559941        1.6563829007917750     
  0.12179999692307319        1.6568507069848748     
  0.12189999692054698        1.6573184030592445     
  0.12199999691802077        1.6577859890322286     
  0.12209999691549456        1.6582534649211707     
  0.12219999691296834        1.6587208307434103     
  0.12229999691044213        1.6591880865162860     
  0.12239999690791592        1.6596552322571325     
  0.12249999690538971        1.6601222679832839     
  0.12259999690286350        1.6605891937120707     
  0.12269999690033728        1.6610560094608213     
  0.12279999689781107        1.6615227152468619     
  0.12289999689528486        1.6619893110875164     
  0.12299999689275865        1.6624557970001059     
  0.12309999689023243        1.6629221730019497     
  0.12319999688770622        1.6633884391103644     
  0.12329999688518001        1.6638545953426638     
  0.12339999688265380        1.6643206417161607     
  0.12349999688012758        1.6647865782481639     
  0.12359999687760137        1.6652524049559809     
  0.12369999687507516        1.6657181218569166     
  0.12379999687254895        1.6661837289682737     
  0.12389999687002273        1.6666492263073518     
  0.12399999686749652        1.6671146138914488     
  0.12409999686497031        1.6675798917378604     
  0.12419999686244410        1.6680450598638794     
  0.12429999685991788        1.6685101182867963     
  0.12439999685739167        1.6689750670238996     
  0.12449999685486546        1.6694399060924754     
  0.12459999685233925        1.6699046355098068     
  0.12469999684981303        1.6703692552931759     
  0.12479999684728682        1.6708337654598606     
  0.12489999684476061        1.6712981660271380     
  0.12499999684223440        1.6717624570122820     
  0.12509999683970818        1.6722266384325644     
  0.12519999683718197        1.6726907103052548     
  0.12529999683465576        1.6731546726476201     
  0.12539999683212955        1.6736185254769249     
  0.12549999682960333        1.6740822688104320     
  0.12559999682707712        1.6745459026654008     
  0.12569999682455091        1.6750094270590896     
  0.12579999682202470        1.6754728420087532     
  0.12589999681949848        1.6759361475316448     
  0.12599999681697227        1.6763993436450146     
  0.12609999681444606        1.6768624303661115     
  0.12619999681191985        1.6773254077121806     
  0.12629999680939363        1.6777882757004661     
  0.12639999680686742        1.6782510343482084     
  0.12649999680434121        1.6787136836726471     
  0.12659999680181500        1.6791762236910182     
  0.12669999679928878        1.6796386544205553     
  0.12679999679676257        1.6801009758784913     
  0.12689999679423636        1.6805631880820546     
  0.12699999679171015        1.6810252910484729     
  0.12709999678918393        1.6814872847949702     
  0.12719999678665772        1.6819491693387694     
  0.12729999678413151        1.6824109446970903     
  0.12739999678160530        1.6828726108871503     
  0.12749999677907908        1.6833341679261649     
  0.12759999677655287        1.6837956158313467     
  0.12769999677402666        1.6842569546199071     
  0.12779999677150045        1.6847181843090531     
  0.12789999676897423        1.6851793049159918     
  0.12799999676644802        1.6856403164579259     
  0.12809999676392181        1.6861012189520568     
  0.12819999676139560        1.6865620124155831     
  0.12829999675886938        1.6870226968657016     
  0.12839999675634317        1.6874832723196065     
  0.12849999675381696        1.6879437387944889     
  0.12859999675129075        1.6884040963075391     
  0.12869999674876453        1.6888643448759437     
  0.12879999674623832        1.6893244845168871     
  0.12889999674371211        1.6897845152475524     
  0.12899999674118590        1.6902444370851195     
  0.12909999673865968        1.6907042500467653     
  0.12919999673613347        1.6911639541496659     
  0.12929999673360726        1.6916235494109944     
  0.12939999673108105        1.6920830358479206     
  0.12949999672855483        1.6925424134776139     
  0.12959999672602862        1.6930016823172391     
  0.12969999672350241        1.6934608423839608     
  0.12979999672097620        1.6939198936949398     
  0.12989999671844998        1.6943788362673349     
  0.12999999671592377        1.6948376701183032     
  0.13009999671339756        1.6952963952649980     
  0.13019999671087135        1.6957550117245721     
  0.13029999670834513        1.6962135195141750     
  0.13039999670581892        1.6966719186509533     
  0.13049999670329271        1.6971302091520521     
  0.13059999670076650        1.6975883910346141     
  0.13069999669824028        1.6980464643157798     
  0.13079999669571407        1.6985044290126861     
  0.13089999669318786        1.6989622851424691     
  0.13099999669066165        1.6994200327222617     
  0.13109999668813543        1.6998776717691950     
  0.13119999668560922        1.7003352023003973     
  0.13129999668308301        1.7007926243329945     
  0.13139999668055680        1.7012499378841111     
  0.13149999667803058        1.7017071429708677     
  0.13159999667550437        1.7021642396103840     
  0.13169999667297816        1.7026212278197763     
  0.13179999667045195        1.7030781076161596     
  0.13189999666792573        1.7035348790166456     
  0.13199999666539952        1.7039915420383438     
  0.13209999666287331        1.7044480966983624     
  0.13219999666034710        1.7049045430138059     
  0.13229999665782088        1.7053608810017773     
  0.13239999665529467        1.7058171106793765     
  0.13249999665276846        1.7062732320637024     
  0.13259999665024225        1.7067292451718497     
  0.13269999664771603        1.7071851500209130     
  0.13279999664518982        1.7076409466279823     
  0.13289999664266361        1.7080966350101470     
  0.13299999664013740        1.7085522151844930     
  0.13309999663761118        1.7090076871681048     
  0.13319999663508497        1.7094630509780637     
  0.13329999663255876        1.7099183066314494     
  0.13339999663003255        1.7103734541453388     
  0.13349999662750633        1.7108284935368068     
  0.13359999662498012        1.7112834248229256     
  0.13369999662245391        1.7117382480207652     
  0.13379999661992770        1.7121929631473933     
  0.13389999661740148        1.7126475702198758     
  0.13399999661487527        1.7131020692552750     
  0.13409999661234906        1.7135564602706521     
  0.13419999660982285        1.7140107432830654     
  0.13429999660729663        1.7144649183095706     
  0.13439999660477042        1.7149189853672222     
  0.13449999660224421        1.7153729444730708     
  0.13459999659971800        1.7158267956441660     
  0.13469999659719178        1.7162805388975539     
  0.13479999659466557        1.7167341742502797     
  0.13489999659213936        1.7171877017193853     
  0.13499999658961315        1.7176411213219098     
  0.13509999658708693        1.7180944330748915     
  0.13519999658456072        1.7185476369953649     
  0.13529999658203451        1.7190007331003627     
  0.13539999657950830        1.7194537214069157     
  0.13549999657698208        1.7199066019320519     
  0.13559999657445587        1.7203593746927968     
  0.13569999657192966        1.7208120397061744     
  0.13579999656940345        1.7212645969892053     
  0.13589999656687723        1.7217170465589087     
  0.13599999656435102        1.7221693884323004     
  0.13609999656182481        1.7226216226263955     
  0.13619999655929860        1.7230737491582051     
  0.13629999655677238        1.7235257680447387     
  0.13639999655424617        1.7239776793030037     
  0.13649999655171996        1.7244294829500051     
  0.13659999654919375        1.7248811790027454     
  0.13669999654666753        1.7253327674782244     
  0.13679999654414132        1.7257842483934400     
  0.13689999654161511        1.7262356217653880     
  0.13699999653908890        1.7266868876110619     
  0.13709999653656268        1.7271380459474521     
  0.13719999653403647        1.7275890967915470     
  0.13729999653151026        1.7280400401603333     
  0.13739999652898405        1.7284908760707949     
  0.13749999652645783        1.7289416045399135     
  0.13759999652393162        1.7293922255846679     
  0.13769999652140541        1.7298427392220352     
  0.13779999651887920        1.7302931454689907     
  0.13789999651635299        1.7307434443425058     
  0.13799999651382677        1.7311936358595510     
  0.13809999651130056        1.7316437200370940     
  0.13819999650877435        1.7320936968920999     
  0.13829999650624814        1.7325435664415321     
  0.13839999650372192        1.7329933287023511     
  0.13849999650119571        1.7334429836915153     
  0.13859999649866950        1.7338925314259808     
  0.13869999649614329        1.7343419719227016     
  0.13879999649361707        1.7347913051986286     
  0.13889999649109086        1.7352405312707115     
  0.13899999648856465        1.7356896501558967     
  0.13909999648603844        1.7361386618711290     
  0.13919999648351222        1.7365875664333505     
  0.13929999648098601        1.7370363638595008     
  0.13939999647845980        1.7374850541665179     
  0.13949999647593359        1.7379336373713365     
  0.13959999647340737        1.7383821134908901     
  0.13969999647088116        1.7388304825421088     
  0.13979999646835495        1.7392787445419211     
  0.13989999646582874        1.7397268995072532     
  0.13999999646330252        1.7401749474550283     
  0.14009999646077631        1.7406228884021679     
  0.14019999645825010        1.7410707223655915     
  0.14029999645572389        1.7415184493622149     
  0.14039999645319767        1.7419660694089529     
  0.14049999645067146        1.7424135825227181     
  0.14059999644814525        1.7428609887204196     
  0.14069999644561904        1.7433082880189650     
  0.14079999644309282        1.7437554804352597     
  0.14089999644056661        1.7442025659862064     
  0.14099999643804040        1.7446495446887056     
  0.14109999643551419        1.7450964165596554     
  0.14119999643298797        1.7455431816159519     
  0.14129999643046176        1.7459898398744889     
  0.14139999642793555        1.7464363913521568     
  0.14149999642540934        1.7468828360658457     
  0.14159999642288312        1.7473291740324415     
  0.14169999642035691        1.7477754052688286     
  0.14179999641783070        1.7482215297918895     
  0.14189999641530449        1.7486675476185034     
  0.14199999641277827        1.7491134587655481     
  0.14209999641025206        1.7495592632498984     
  0.14219999640772585        1.7500049610884276     
  0.14229999640519964        1.7504505522980056     
  0.14239999640267342        1.7508960368955011     
  0.14249999640014721        1.7513414148977797     
  0.14259999639762100        1.7517866863217049     
  0.14269999639509479        1.7522318511841382     
  0.14279999639256857        1.7526769095019386     
  0.14289999639004236        1.7531218612919623     
  0.14299999638751615        1.7535667065710641     
  0.14309999638498994        1.7540114453560962     
  0.14319999638246372        1.7544560776639075     
  0.14329999637993751        1.7549006035113466     
  0.14339999637741130        1.7553450229152578     
  0.14349999637488509        1.7557893358924843     
  0.14359999637235887        1.7562335424598661     
  0.14369999636983266        1.7566776426342421     
  0.14379999636730645        1.7571216364324480     
  0.14389999636478024        1.7575655238713170     
  0.14399999636225402        1.7580093049676808     
  0.14409999635972781        1.7584529797383686     
  0.14419999635720160        1.7588965482002066     
  0.14429999635467539        1.7593400103700196     
  0.14439999635214917        1.7597833662646296     
  0.14449999634962296        1.7602266159008559     
  0.14459999634709675        1.7606697592955172     
  0.14469999634457054        1.7611127964654276     
  0.14479999634204432        1.7615557274274003     
  0.14489999633951811        1.7619985521982457     
  0.14499999633699190        1.7624412707947728     
  0.14509999633446569        1.7628838832337870     
  0.14519999633193947        1.7633263895320916     
  0.14529999632941326        1.7637687897064893     
  0.14539999632688705        1.7642110837737781     
  0.14549999632436084        1.7646532717507550     
  0.14559999632183462        1.7650953536542149     
  0.14569999631930841        1.7655373295009495     
  0.14579999631678220        1.7659791993077489     
  0.14589999631425599        1.7664209630914010     
  0.14599999631172977        1.7668626208686908     
  0.14609999630920356        1.7673041726564014     
  0.14619999630667735        1.7677456184713134     
  0.14629999630415114        1.7681869583302054     
  0.14639999630162492        1.7686281922498535     
  0.14649999629909871        1.7690693202470316     
  0.14659999629657250        1.7695103423385106     
  0.14669999629404629        1.7699512585410608     
  0.14679999629152007        1.7703920688714483     
  0.14689999628899386        1.7708327733464380     
  0.14699999628646765        1.7712733719827929     
  0.14709999628394144        1.7717138647972717     
  0.14719999628141522        1.7721542518066333     
  0.14729999627888901        1.7725945330276331     
  0.14739999627636280        1.7730347084770237     
  0.14749999627383659        1.7734747781715565     
  0.14759999627131037        1.7739147421279795     
  0.14769999626878416        1.7743546003630399     
  0.14779999626625795        1.7747943528934811     
  0.14789999626373174        1.7752339997360447     
  0.14799999626120552        1.7756735409074706     
  0.14809999625867931        1.7761129764244958     
  0.14819999625615310        1.7765523063038553     
  0.14829999625362689        1.7769915305622810     
  0.14839999625110067        1.7774306492165035     
  0.14849999624857446        1.7778696622832515     
  0.14859999624604825        1.7783085697792496     
  0.14869999624352204        1.7787473717212219     
  0.14879999624099582        1.7791860681258891     
  0.14889999623846961        1.7796246590099707     
  0.14899999623594340        1.7800631443901822     
  0.14909999623341719        1.7805015242832385     
  0.14919999623089097        1.7809397987058517     
  0.14929999622836476        1.7813779676747310     
  0.14939999622583855        1.7818160312065845     
  0.14949999622331234        1.7822539893181162     
  0.14959999622078612        1.7826918420260298     
  0.14969999621825991        1.7831295893470258     
  0.14979999621573370        1.7835672312978019     
  0.14989999621320749        1.7840047678950546     
  0.14999999621068127        1.7844421991554773     
  0.15009999620815506        1.7848795250957612     
  0.15019999620562885        1.7853167457325958     
  0.15029999620310264        1.7857538610826675     
  0.15039999620057642        1.7861908711626613     
  0.15049999619805021        1.7866277759892593     
  0.15059999619552400        1.7870645755791412     
  0.15069999619299779        1.7875012699489847     
  0.15079999619047157        1.7879378591154655     
  0.15089999618794536        1.7883743430952568     
  0.15099999618541915        1.7888107219050287     
  0.15109999618289294        1.7892469955614505     
  0.15119999618036672        1.7896831640811883     
  0.15129999617784051        1.7901192274809059     
  0.15139999617531430        1.7905551857772648     
  0.15149999617278809        1.7909910389869252     
  0.15159999617026187        1.7914267871265435     
  0.15169999616773566        1.7918624302127748     
  0.15179999616520945        1.7922979682622717     
  0.15189999616268324        1.7927334012916845     
  0.15199999616015702        1.7931687293176610     
  0.15209999615763081        1.7936039523568477     
  0.15219999615510460        1.7940390704258871     
  0.15229999615257839        1.7944740835414210     
  0.15239999615005217        1.7949089917200880     
  0.15249999614752596        1.7953437949785247     
  0.15259999614499975        1.7957784933333660     
  0.15269999614247354        1.7962130868012434     
  0.15279999613994732        1.7966475753987865     
  0.15289999613742111        1.7970819591426235     
  0.15299999613489490        1.7975162380493794     
  0.15309999613236869        1.7979504121356773     
  0.15319999612984248        1.7983844814181373     
  0.15329999612731626        1.7988184459133780     
  0.15339999612479005        1.7992523056380159     
  0.15349999612226384        1.7996860606086647     
  0.15359999611973763        1.8001197108419362     
  0.15369999611721141        1.8005532563544393     
  0.15379999611468520        1.8009866971627810     
  0.15389999611215899        1.8014200332835664     
  0.15399999610963278        1.8018532647333982     
  0.15409999610710656        1.8022863915288756     
  0.15419999610458035        1.8027194136865980     
  0.15429999610205414        1.8031523312231599     
  0.15439999609952793        1.8035851441551554     
  0.15449999609700171        1.8040178524991748     
  0.15459999609447550        1.8044504562718078     
  0.15469999609194929        1.8048829554896404     
  0.15479999608942308        1.8053153501692574     
  0.15489999608689686        1.8057476403272403     
  0.15499999608437065        1.8061798259801698     
  0.15509999608184444        1.8066119071446223     
  0.15519999607931823        1.8070438838371734     
  0.15529999607679201        1.8074757560743961     
  0.15539999607426580        1.8079075238728615     
  0.15549999607173959        1.8083391872491374     
  0.15559999606921338        1.8087707462197904     
  0.15569999606668716        1.8092022008013839     
  0.15579999606416095        1.8096335510104797     
  0.15589999606163474        1.8100647968636376     
  0.15599999605910853        1.8104959383774140     
  0.15609999605658231        1.8109269755683641     
  0.15619999605405610        1.8113579084530405     
  0.15629999605152989        1.8117887370479933     
  0.15639999604900368        1.8122194613697702     
  0.15649999604647746        1.8126500814349176     
  0.15659999604395125        1.8130805972599786     
  0.15669999604142504        1.8135110088614939     
  0.15679999603889883        1.8139413162560034     
  0.15689999603637261        1.8143715194600434     
  0.15699999603384640        1.8148016184901479     
  0.15709999603132019        1.8152316133628497     
  0.15719999602879398        1.8156615040946784     
  0.15729999602626776        1.8160912907021611     
  0.15739999602374155        1.8165209732018242     
  0.15749999602121534        1.8169505516101898     
  0.15759999601868913        1.8173800259437796     
  0.15769999601616291        1.8178093962191113     
  0.15779999601363670        1.8182386624527016     
  0.15789999601111049        1.8186678246610648     
  0.15799999600858428        1.8190968828607121     
  0.15809999600605806        1.8195258370681535     
  0.15819999600353185        1.8199546872998960     
  0.15829999600100564        1.8203834335724447     
  0.15839999599847943        1.8208120759023021     
  0.15849999599595321        1.8212406143059692     
  0.15859999599342700        1.8216690487999434     
  0.15869999599090079        1.8220973794007214     
  0.15879999598837458        1.8225256061247963     
  0.15889999598584836        1.8229537289886597     
  0.15899999598332215        1.8233817480088013     
  0.15909999598079594        1.8238096632017076     
  0.15919999597826973        1.8242374745838630     
  0.15929999597574351        1.8246651821717499     
  0.15939999597321730        1.8250927859818487     
  0.15949999597069109        1.8255202860306374     
  0.15959999596816488        1.8259476823345913     
  0.15969999596563866        1.8263749749101839     
  0.15979999596311245        1.8268021637738863     
  0.15989999596058624        1.8272292489421669     
  0.15999999595806003        1.8276562304314932     
  0.16009999595553381        1.8280831082583289     
  0.16019999595300760        1.8285098824391359     
  0.16029999595048139        1.8289365529903745     
  0.16039999594795518        1.8293631199285025     
  0.16049999594542896        1.8297895832699740     
  0.16059999594290275        1.8302159430312432     
  0.16069999594037654        1.8306421992287607     
  0.16079999593785033        1.8310683518789748     
  0.16089999593532411        1.8314944009983316     
  0.16099999593279790        1.8319203466032756     
  0.16109999593027169        1.8323461887102486     
  0.16119999592774548        1.8327719273356895     
  0.16129999592521926        1.8331975624960362     
  0.16139999592269305        1.8336230942077236     
  0.16149999592016684        1.8340485224871839     
  0.16159999591764063        1.8344738473508486     
  0.16169999591511441        1.8348990688151454     
  0.16179999591258820        1.8353241868965002     
  0.16189999591006199        1.8357492016113373     
  0.16199999590753578        1.8361741129760774     
  0.16209999590500956        1.8365989210071403     
  0.16219999590248335        1.8370236257209431     
  0.16229999589995714        1.8374482271339008     
  0.16239999589743093        1.8378727252624245     
  0.16249999589490471        1.8382971201229261     
  0.16259999589237850        1.8387214117318131     
  0.16269999588985229        1.8391456001054911     
  0.16279999588732608        1.8395696852603634     
  0.16289999588479986        1.8399936672128319     
  0.16299999588227365        1.8404175459792951     
  0.16309999587974744        1.8408413215761499     
  0.16319999587722123        1.8412649940197907     
  0.16329999587469501        1.8416885633266102     
  0.16339999587216880        1.8421120295129980     
  0.16349999586964259        1.8425353925953423     
  0.16359999586711638        1.8429586525900286     
  0.16369999586459016        1.8433818095134393     
  0.16379999586206395        1.8438048633819566     
  0.16389999585953774        1.8442278142119588     
  0.16399999585701153        1.8446506620198226     
  0.16409999585448531        1.8450734068219219     
  0.16419999585195910        1.8454960486346292     
  0.16429999584943289        1.8459185874743143     
  0.16439999584690668        1.8463410233573443     
  0.16449999584438046        1.8467633563000854     
  0.16459999584185425        1.8471855863189002     
  0.16469999583932804        1.8476077134301492     
  0.16479999583680183        1.8480297376501915     
  0.16489999583427561        1.8484516589953834     
  0.16499999583174940        1.8488734774820790     
  0.16509999582922319        1.8492951931266299     
  0.16519999582669698        1.8497168059453863     
  0.16529999582417076        1.8501383159546947     
  0.16539999582164455        1.8505597231709014     
  0.16549999581911834        1.8509810276103487     
  0.16559999581659213        1.8514022292893770     
  0.16569999581406591        1.8518233282243250     
  0.16579999581153970        1.8522443244315290     
  0.16589999580901349        1.8526652179273231     
  0.16599999580648728        1.8530860087280385     
  0.16609999580396106        1.8535066968500051     
  0.16619999580143485        1.8539272823095501     
  0.16629999579890864        1.8543477651229980     
  0.16639999579638243        1.8547681453066724     
  0.16649999579385621        1.8551884228768933     
  0.16659999579133000        1.8556085978499790     
  0.16669999578880379        1.8560286702422455     
  0.16679999578627758        1.8564486400700071     
  0.16689999578375136        1.8568685073495743     
  0.16699999578122515        1.8572882720972577     
  0.16709999577869894        1.8577079343293637     
  0.16719999577617273        1.8581274940621970     
  0.16729999577364651        1.8585469513120603     
  0.16739999577112030        1.8589663060952548     
  0.16749999576859409        1.8593855584280781     
  0.16759999576606788        1.8598047083268257     
  0.16769999576354166        1.8602237558077914     
  0.16779999576101545        1.8606427008872677     
  0.16789999575848924        1.8610615435815423     
  0.16799999575596303        1.8614802839069031     
  0.16809999575343681        1.8618989218796351     
  0.16819999575091060        1.8623174575160200     
  0.16829999574838439        1.8627358908323384     
  0.16839999574585818        1.8631542218448687     
  0.16849999574333197        1.8635724505698863     
  0.16859999574080575        1.8639905770236647     
  0.16869999573827954        1.8644086012224759     
  0.16879999573575333        1.8648265231825882     
  0.16889999573322712        1.8652443429202692     
  0.16899999573070090        1.8656620604517831     
  0.16909999572817469        1.8660796757933926     
  0.16919999572564848        1.8664971889613580     
  0.16929999572312227        1.8669145999719365     
  0.16939999572059605        1.8673319088413849     
  0.16949999571806984        1.8677491155859558     
  0.16959999571554363        1.8681662202219014     
  0.16969999571301742        1.8685832227654702     
  0.16979999571049120        1.8690001232329081     
  0.16989999570796499        1.8694169216404619     
  0.16999999570543878        1.8698336180043724     
  0.17009999570291257        1.8702502123408797     
  0.17019999570038635        1.8706667046662224     
  0.17029999569786014        1.8710830949966357     
  0.17039999569533393        1.8714993833483535     
  0.17049999569280772        1.8719155697376064     
  0.17059999569028150        1.8723316541806243     
  0.17069999568775529        1.8727476366936333     
  0.17079999568522908        1.8731635172928578     
  0.17089999568270287        1.8735792959945208     
  0.17099999568017665        1.8739949728148420     
  0.17109999567765044        1.8744105477700392     
  0.17119999567512423        1.8748260208763281     
  0.17129999567259802        1.8752413921499222     
  0.17139999567007180        1.8756566616070329     
  0.17149999566754559        1.8760718292638690     
  0.17159999566501938        1.8764868951366371     
  0.17169999566249317        1.8769018592415416     
  0.17179999565996695        1.8773167215947857     
  0.17189999565744074        1.8777314822125686     
  0.17199999565491453        1.8781461411110882     
  0.17209999565238832        1.8785606983065408     
  0.17219999564986210        1.8789751538151191     
  0.17229999564733589        1.8793895076530149     
  0.17239999564480968        1.8798037598364168     
  0.17249999564228347        1.8802179103815115     
  0.17259999563975725        1.8806319593044838     
  0.17269999563723104        1.8810459066215159     
  0.17279999563470483        1.8814597523487879     
  0.17289999563217862        1.8818734965024777     
  0.17299999562965240        1.8822871390987606     
  0.17309999562712619        1.8827006801538106     
  0.17319999562459998        1.8831141196837990     
  0.17329999562207377        1.8835274577048942     
  0.17339999561954755        1.8839406942332633     
  0.17349999561702134        1.8843538292850708     
  0.17359999561449513        1.8847668628764791     
  0.17369999561196892        1.8851797950236482     
  0.17379999560944270        1.8855926257427365     
  0.17389999560691649        1.8860053550498992     
  0.17399999560439028        1.8864179829612897     
  0.17409999560186407        1.8868305094930595     
  0.17419999559933785        1.8872429346613575     
  0.17429999559681164        1.8876552584823307     
  0.17439999559428543        1.8880674809721234     
  0.17449999559175922        1.8884796021468786     
  0.17459999558923300        1.8888916220227356     
  0.17469999558670679        1.8893035406158334     
  0.17479999558418058        1.8897153579423072     
  0.17489999558165437        1.8901270740182903     
  0.17499999557912815        1.8905386888599147     
  0.17509999557660194        1.8909502024833085     
  0.17519999557407573        1.8913616149045995     
  0.17529999557154952        1.8917729261399123     
  0.17539999556902330        1.8921841362053686     
  0.17549999556649709        1.8925952451170898     
  0.17559999556397088        1.8930062528911931     
  0.17569999556144467        1.8934171595437945     
  0.17579999555891845        1.8938279650910079     
  0.17589999555639224        1.8942386695489442     
  0.17599999555386603        1.8946492729337132     
  0.17609999555133982        1.8950597752614216     
  0.17619999554881360        1.8954701765481736     
  0.17629999554628739        1.8958804768100732     
  0.17639999554376118        1.8962906760632197     
  0.17649999554123497        1.8967007743237110     
  0.17659999553870875        1.8971107716076441     
  0.17669999553618254        1.8975206679311116     
  0.17679999553365633        1.8979304633102059     
  0.17689999553113012        1.8983401577610159     
  0.17699999552860390        1.8987497512996288     
  0.17709999552607769        1.8991592439421292     
  0.17719999552355148        1.8995686357046002     
  0.17729999552102527        1.8999779266031220     
  0.17739999551849905        1.9003871166537736     
  0.17749999551597284        1.9007962058726293     
  0.17759999551344663        1.9012051942757651     
  0.17769999551092042        1.9016140818792513     
  0.17779999550839420        1.9020228686991578     
  0.17789999550586799        1.9024315547515518     
  0.17799999550334178        1.9028401400524986     
  0.17809999550081557        1.9032486246180600     
  0.17819999549828935        1.9036570084642979     
  0.17829999549576314        1.9040652916072702     
  0.17839999549323693        1.9044734740630327     
  0.17849999549071072        1.9048815558476400     
  0.17859999548818450        1.9052895369771436     
  0.17869999548565829        1.9056974174675934     
  0.17879999548313208        1.9061051973350365     
  0.17889999548060587        1.9065128765955182     
  0.17899999547807965        1.9069204552650816     
  0.17909999547555344        1.9073279333597672     
  0.17919999547302723        1.9077353108956141     
  0.17929999547050102        1.9081425878886582     
  0.17939999546797480        1.9085497643549334     
  0.17949999546544859        1.9089568403104729     
  0.17959999546292238        1.9093638157713055     
  0.17969999546039617        1.9097706907534588     
  0.17979999545786995        1.9101774652729588     
  0.17989999545534374        1.9105841393458278     
  0.17999999545281753        1.9109907129880876     
  0.18009999545029132        1.9113971862157566     
  0.18019999544776510        1.9118035590448512     
  0.18029999544523889        1.9122098314913862     
  0.18039999544271268        1.9126160035713737     
  0.18049999544018647        1.9130220753008234     
  0.18059999543766025        1.9134280466957436     
  0.18069999543513404        1.9138339177721391     
  0.18079999543260783        1.9142396885460138     
  0.18089999543008162        1.9146453590333694     
  0.18099999542755540        1.9150509292502038     
  0.18109999542502919        1.9154563992125144     
  0.18119999542250298        1.9158617689362962     
  0.18129999541997677        1.9162670384375406     
  0.18139999541745055        1.9166722077322389     
  0.18149999541492434        1.9170772768363784     
  0.18159999541239813        1.9174822457659451     
  0.18169999540987192        1.9178871145369225     
  0.18179999540734570        1.9182918831652924     
  0.18189999540481949        1.9186965516670340     
  0.18199999540229328        1.9191011200581238     
  0.18209999539976707        1.9195055883545371     
  0.18219999539724085        1.9199099565722466     
  0.18229999539471464        1.9203142247272225     
  0.18239999539218843        1.9207183928354334     
  0.18249999538966222        1.9211224609128448     
  0.18259999538713600        1.9215264289754213     
  0.18269999538460979        1.9219302970391241     
  0.18279999538208358        1.9223340651199128     
  0.18289999537955737        1.9227377332337450     
  0.18299999537703115        1.9231413013965750     
  0.18309999537450494        1.9235447696243571     
  0.18319999537197873        1.9239481379330408     
  0.18329999536945252        1.9243514063385747     
  0.18339999536692630        1.9247545748569057     
  0.18349999536440009        1.9251576435039781     
  0.18359999536187388        1.9255606122957332     
  0.18369999535934767        1.9259634812481112     
  0.18379999535682146        1.9263662503770500     
  0.18389999535429524        1.9267689196984841     
  0.18399999535176903        1.9271714892283471     
  0.18409999534924282        1.9275739589825709     
  0.18419999534671661        1.9279763289770830     
  0.18429999534419039        1.9283785992278109     
  0.18439999534166418        1.9287807697506787     
  0.18449999533913797        1.9291828405616087     
  0.18459999533661176        1.9295848116765213     
  0.18469999533408554        1.9299866831113337     
  0.18479999533155933        1.9303884548819625     
  0.18489999532903312        1.9307901270043208     
  0.18499999532650691        1.9311916994943197     
  0.18509999532398069        1.9315931723678692     
  0.18519999532145448        1.9319945456408751     
  0.18529999531892827        1.9323958193292428     
  0.18539999531640206        1.9327969934488749     
  0.18549999531387584        1.9331980680156715     
  0.18559999531134963        1.9335990430455317     
  0.18569999530882342        1.9339999185543506     
  0.18579999530629721        1.9344006945580223     
  0.18589999530377099        1.9348013710724388     
  0.18599999530124478        1.9352019481134894     
  0.18609999529871857        1.9356024256970614     
  0.18619999529619236        1.9360028038390400     
  0.18629999529366614        1.9364030825553080     
  0.18639999529113993        1.9368032618617463     
  0.18649999528861372        1.9372033417742334     
  0.18659999528608751        1.9376033223086457     
  0.18669999528356129        1.9380032034808574     
  0.18679999528103508        1.9384029853067406     
  0.18689999527850887        1.9388026678021655     
  0.18699999527598266        1.9392022509829991     
  0.18709999527345644        1.9396017348651071     
  0.18719999527093023        1.9400011194643536     
  0.18729999526840402        1.9404004047965984     
  0.18739999526587781        1.9407995908777016     
  0.18749999526335159        1.9411986777235195     
  0.18759999526082538        1.9415976653499065     
  0.18769999525829917        1.9419965537727153     
  0.18779999525577296        1.9423953430077963     
  0.18789999525324674        1.9427940330709974     
  0.18799999525072053        1.9431926239781641     
  0.18809999524819432        1.9435911157451411     
  0.18819999524566811        1.9439895083877690     
  0.18829999524314189        1.9443878019218876     
  0.18839999524061568        1.9447859963633336     
  0.18849999523808947        1.9451840917279426     
  0.18859999523556326        1.9455820880315475     
  0.18869999523303704        1.9459799852899782     
  0.18879999523051083        1.9463777835190639     
  0.18889999522798462        1.9467754827346306     
  0.18899999522545841        1.9471730829525022     
  0.18909999522293219        1.9475705841885012     
  0.18919999522040598        1.9479679864584472     
  0.18929999521787977        1.9483652897781574     
  0.18939999521535356        1.9487624941634476     
  0.18949999521282734        1.9491595996301312     
  0.18959999521030113        1.9495566061940193     
  0.18969999520777492        1.9499535138709199     
  0.18979999520524871        1.9503503226766410     
  0.18989999520272249        1.9507470326269862     
  0.18999999520019628        1.9511436437377587     
  0.19009999519767007        1.9515401560247581     
  0.19019999519514386        1.9519365695037827     
  0.19029999519261764        1.9523328841906280     
  0.19039999519009143        1.9527291001010885     
  0.19049999518756522        1.9531252172509554     
  0.19059999518503901        1.9535212356560177     
  0.19069999518251279        1.9539171553320631     
  0.19079999517998658        1.9543129762948761     
  0.19089999517746037        1.9547086985602400     
  0.19099999517493416        1.9551043221439355     
  0.19109999517240794        1.9554998470617408     
  0.19119999516988173        1.9558952733294321     
  0.19129999516735552        1.9562906009627845     
  0.19139999516482931        1.9566858299775691     
  0.19149999516230309        1.9570809603895558     
  0.19159999515977688        1.9574759922145128     
  0.19169999515725067        1.9578709254682054     
  0.19179999515472446        1.9582657601663971     
  0.19189999515219824        1.9586604963248484     
  0.19199999514967203        1.9590551339593190     
  0.19209999514714582        1.9594496730855655     
  0.19219999514461961        1.9598441137193423     
  0.19229999514209339        1.9602384558764023     
  0.19239999513956718        1.9606326995724963     
  0.19249999513704097        1.9610268448233714     
  0.19259999513451476        1.9614208916447744     
  0.19269999513198854        1.9618148400524489     
  0.19279999512946233        1.9622086900621367     
  0.19289999512693612        1.9626024416895764     
  0.19299999512440991        1.9629960949505070     
  0.19309999512188369        1.9633896498606627     
  0.19319999511935748        1.9637831064357765     
  0.19329999511683127        1.9641764646915798     
  0.19339999511430506        1.9645697246438010     
  0.19349999511177884        1.9649628863081663     
  0.19359999510925263        1.9653559497004003     
  0.19369999510672642        1.9657489148362259     
  0.19379999510420021        1.9661417817313620     
  0.19389999510167399        1.9665345504015272     
  0.19399999509914778        1.9669272208624371     
  0.19409999509662157        1.9673197931298052     
  0.19419999509409536        1.9677122672193432     
  0.19429999509156914        1.9681046431467604     
  0.19439999508904293        1.9684969209277634     
  0.19449999508651672        1.9688891005780573     
  0.19459999508399051        1.9692811821133454     
  0.19469999508146429        1.9696731655493269     
  0.19479999507893808        1.9700650509017019     
  0.19489999507641187        1.9704568381861662     
  0.19499999507388566        1.9708485274184135     
  0.19509999507135944        1.9712401186141359     
  0.19519999506883323        1.9716316117890234     
  0.19529999506630702        1.9720230069587639     
  0.19539999506378081        1.9724143041390421     
  0.19549999506125459        1.9728055033455427     
  0.19559999505872838        1.9731966045939457     
  0.19569999505620217        1.9735876078999304     
  0.19579999505367596        1.9739785132791741     
  0.19589999505114974        1.9743693207473509     
  0.19599999504862353        1.9747600303201338     
  0.19609999504609732        1.9751506420131935     
  0.19619999504357111        1.9755411558421976     
  0.19629999504104489        1.9759315718228123     
  0.19639999503851868        1.9763218899707020     
  0.19649999503599247        1.9767121103015279     
  0.19659999503346626        1.9771022328309504     
  0.19669999503094004        1.9774922575746263     
  0.19679999502841383        1.9778821845482117     
  0.19689999502588762        1.9782720137673588     
  0.19699999502336141        1.9786617452477191     
  0.19709999502083519        1.9790513790049418     
  0.19719999501830898        1.9794409150546732     
  0.19729999501578277        1.9798303534125581     
  0.19739999501325656        1.9802196940942385     
  0.19749999501073034        1.9806089371153555     
  0.19759999500820413        1.9809980824915461     
  0.19769999500567792        1.9813871302384469     
  0.19779999500315171        1.9817760803716924     
  0.19789999500062549        1.9821649329069133     
  0.19799999499809928        1.9825536878597387     
  0.19809999499557307        1.9829423452457973     
  0.19819999499304686        1.9833309050807137     
  0.19829999499052064        1.9837193673801106     
  0.19839999498799443        1.9841077321596092     
  0.19849999498546822        1.9844959994348288     
  0.19859999498294201        1.9848841692213850     
  0.19869999498041579        1.9852722415348929     
  0.19879999497788958        1.9856602163909649     
  0.19889999497536337        1.9860480938052110     
  0.19899999497283716        1.9864358737932393     
  0.19909999497031095        1.9868235563706556     
  0.19919999496778473        1.9872111415530633     
  0.19929999496525852        1.9875986293560648     
  0.19939999496273231        1.9879860197952588     
  0.19949999496020610        1.9883733128862433     
  0.19959999495767988        1.9887605086446123     
  0.19969999495515367        1.9891476070859599     
  0.19979999495262746        1.9895346082258769     
  0.19989999495010125        1.9899215120799514     
  0.19999999494757503        1.9903083186637702     
  0.20009999494504882        1.9906950279929183     
  0.20019999494252261        1.9910816400829769     
  0.20029999493999640        1.9914681549495272     
  0.20039999493747018        1.9918545726081467     
  0.20049999493494397        1.9922408930744111     
  0.20059999493241776        1.9926271163638944     
  0.20069999492989155        1.9930132424921680     
  0.20079999492736533        1.9933992714748010     
  0.20089999492483912        1.9937852033273618     
  0.20099999492231291        1.9941710380654145     
  0.20109999491978670        1.9945567757045226     
  0.20119999491726048        1.9949424162602463     
  0.20129999491473427        1.9953279597481450     
  0.20139999491220806        1.9957134061837749     
  0.20149999490968185        1.9960987555826908     
  0.20159999490715563        1.9964840079604447     
  0.20169999490462942        1.9968691633325870     
  0.20179999490210321        1.9972542217146652     
  0.20189999489957700        1.9976391831222258     
  0.20199999489705078        1.9980240475708120     
  0.20209999489452457        1.9984088150759658     
  0.20219999489199836        1.9987934856532263     
  0.20229999488947215        1.9991780593181310     
  0.20239999488694593        1.9995625360862155     
  0.20249999488441972        1.9999469159730121     
  0.20259999488189351        2.0003311989940524     
  0.20269999487936730        2.0007153851648645     
  0.20279999487684108        2.0010994745009754     
  0.20289999487431487        2.0014834670179096     
  0.20299999487178866        2.0018673627311894     
  0.20309999486926245        2.0022511616563348     
  0.20319999486673623        2.0026348638088645     
  0.20329999486421002        2.0030184692042940     
  0.20339999486168381        2.0034019778581369     
  0.20349999485915760        2.0037853897859055     
  0.20359999485663138        2.0041687050031083     
  0.20369999485410517        2.0045519235252538     
  0.20379999485157896        2.0049350453678474     
  0.20389999484905275        2.0053180705463909     
  0.20399999484652653        2.0057009990763865     
  0.20409999484400032        2.0060838309733326     
  0.20419999484147411        2.0064665662527266     
  0.20429999483894790        2.0068492049300621     
  0.20439999483642168        2.0072317470208318     
  0.20449999483389547        2.0076141925405264     
  0.20459999483136926        2.0079965415046344     
  0.20469999482884305        2.0083787939286410     
  0.20479999482631683        2.0087609498280306     
  0.20489999482379062        2.0091430092182851     
  0.20499999482126441        2.0095249721148840     
  0.20509999481873820        2.0099068385333050     
  0.20519999481621198        2.0102886084890237     
  0.20529999481368577        2.0106702819975131     
  0.20539999481115956        2.0110518590742448     
  0.20549999480863335        2.0114333397346869     
  0.20559999480610713        2.0118147239943074     
  0.20569999480358092        2.0121960118685696     
  0.20579999480105471        2.0125772033729379     
  0.20589999479852850        2.0129582985228720     
  0.20599999479600228        2.0133392973338298     
  0.20609999479347607        2.0137201998212686     
  0.20619999479094986        2.0141010060006419     
  0.20629999478842365        2.0144817158874018     
  0.20639999478589743        2.0148623294969981     
  0.20649999478337122        2.0152428468448784     
  0.20659999478084501        2.0156232679464887     
  0.20669999477831880        2.0160035928172730     
  0.20679999477579258        2.0163838214726710     
  0.20689999477326637        2.0167639539281237     
  0.20699999477074016        2.0171439901990671     
  0.20709999476821395        2.0175239303009369     
  0.20719999476568773        2.0179037742491657     
  0.20729999476316152        2.0182835220591837     
  0.20739999476063531        2.0186631737464209     
  0.20749999475810910        2.0190427293263022     
  0.20759999475558288        2.0194221888142527     
  0.20769999475305667        2.0198015522256947     
  0.20779999475053046        2.0201808195760487     
  0.20789999474800425        2.0205599908807317     
  0.20799999474547803        2.0209390661551603     
  0.20809999474295182        2.0213180454147484     
  0.20819999474042561        2.0216969286749071     
  0.20829999473789940        2.0220757159510461     
  0.20839999473537318        2.0224544072585733     
  0.20849999473284697        2.0228330026128929     
  0.20859999473032076        2.0232115020294090     
  0.20869999472779455        2.0235899055235222     
  0.20879999472526833        2.0239682131106318     
  0.20889999472274212        2.0243464248061338     
  0.20899999472021591        2.0247245406254235     
  0.20909999471768970        2.0251025605838935     
  0.20919999471516348        2.0254804846969336     
  0.20929999471263727        2.0258583129799330     
  0.20939999471011106        2.0262360454482771     
  0.20949999470758485        2.0266136821173504     
  0.20959999470505863        2.0269912230025349     
  0.20969999470253242        2.0273686681192098     
  0.20979999470000621        2.0277460174827535     
  0.20989999469748000        2.0281232711085413     
  0.20999999469495378        2.0285004290119470     
  0.21009999469242757        2.0288774912083412     
  0.21019999468990136        2.0292544577130940     
  0.21029999468737515        2.0296313285415719     
  0.21039999468484893        2.0300081037091404     
  0.21049999468232272        2.0303847832311623     
  0.21059999467979651        2.0307613671229983     
  0.21069999467727030        2.0311378554000066     
  0.21079999467474408        2.0315142480775443     
  0.21089999467221787        2.0318905451709659     
  0.21099999466969166        2.0322667466956235     
  0.21109999466716545        2.0326428526668670     
  0.21119999466463923        2.0330188631000445     
  0.21129999466211302        2.0333947780105031     
  0.21139999465958681        2.0337705974135849     
  0.21149999465706060        2.0341463213246334     
  0.21159999465453438        2.0345219497589868     
  0.21169999465200817        2.0348974827319837     
  0.21179999464948196        2.0352729202589588     
  0.21189999464695575        2.0356482623552461     
  0.21199999464442953        2.0360235090361760     
  0.21209999464190332        2.0363986603170776     
  0.21219999463937711        2.0367737162132782     
  0.21229999463685090        2.0371486767401028     
  0.21239999463432468        2.0375235419128739     
  0.21249999463179847        2.0378983117469121     
  0.21259999462927226        2.0382729862575362     
  0.21269999462674605        2.0386475654600620     
  0.21279999462421983        2.0390220493698044     
  0.21289999462169362        2.0393964380020755     
  0.21299999461916741        2.0397707313721845     
  0.21309999461664120        2.0401449294954408     
  0.21319999461411498        2.0405190323871496     
  0.21329999461158877        2.0408930400626142     
  0.21339999460906256        2.0412669525371370     
  0.21349999460653635        2.0416407698260173     
  0.21359999460401013        2.0420144919445522     
  0.21369999460148392        2.0423881189080371     
  0.21379999459895771        2.0427616507317659     
  0.21389999459643150        2.0431350874310281     
  0.21399999459390529        2.0435084290211147     
  0.21409999459137907        2.0438816755173113     
  0.21419999458885286        2.0442548269349032     
  0.21429999458632665        2.0446278832891727     
  0.21439999458380044        2.0450008445954002     
  0.21449999458127422        2.0453737108688652     
  0.21459999457874801        2.0457464821248430     
  0.21469999457622180        2.0461191583786085     
  0.21479999457369559        2.0464917396454334     
  0.21489999457116937        2.0468642259405878     
  0.21499999456864316        2.0472366172793404     
  0.21509999456611695        2.0476089136769557     
  0.21519999456359074        2.0479811151486986     
  0.21529999456106452        2.0483532217098301     
  0.21539999455853831        2.0487252333756105     
  0.21549999455601210        2.0490971501612960     
  0.21559999455348589        2.0494689720821428     
  0.21569999455095967        2.0498406991534042     
  0.21579999454843346        2.0502123313903309     
  0.21589999454590725        2.0505838688081717     
  0.21599999454338104        2.0509553114221744     
  0.21609999454085482        2.0513266592475827     
  0.21619999453832861        2.0516979122996402     
  0.21629999453580240        2.0520690705935873     
  0.21639999453327619        2.0524401341446628     
  0.21649999453074997        2.0528111029681018     
  0.21659999452822376        2.0531819770791406     
  0.21669999452569755        2.0535527564930094     
  0.21679999452317134        2.0539234412249399     
  0.21689999452064512        2.0542940312901594     
  0.21699999451811891        2.0546645267038941     
  0.21709999451559270        2.0550349274813677     
  0.21719999451306649        2.0554052336378015     
  0.21729999451054027        2.0557754451884156     
  0.21739999450801406        2.0561455621484273     
  0.21749999450548785        2.0565155845330523     
  0.21759999450296164        2.0568855123575043     
  0.21769999450043542        2.0572553456369933     
  0.21779999449790921        2.0576250843867294     
  0.21789999449538300        2.0579947286219196     
  0.21799999449285679        2.0583642783577685     
  0.21809999449033057        2.0587337336094791     
  0.21819999448780436        2.0591030943922521     
  0.21829999448527815        2.0594723607212866     
  0.21839999448275194        2.0598415326117783     
  0.21849999448022572        2.0602106100789217     
  0.21859999447769951        2.0605795931379105     
  0.21869999447517330        2.0609484818039339     
  0.21879999447264709        2.0613172760921801     
  0.21889999447012087        2.0616859760178357     
  0.21899999446759466        2.0620545815960840     
  0.21909999446506845        2.0624230928421072     
  0.21919999446254224        2.0627915097710856     
  0.21929999446001602        2.0631598323981968     
  0.21939999445748981        2.0635280607386153     
  0.21949999445496360        2.0638961948075161     
  0.21959999445243739        2.0642642346200697     
  0.21969999444991117        2.0646321801914462     
  0.21979999444738496        2.0650000315368122     
  0.21989999444485875        2.0653677886713329     
  0.21999999444233254        2.0657354516101720     
  0.22009999443980632        2.0661030203684900     
  0.22019999443728011        2.0664704949614459     
  0.22029999443475390        2.0668378754041967     
  0.22039999443222769        2.0672051617118967     
  0.22049999442970147        2.0675723538996986     
  0.22059999442717526        2.0679394519827534     
  0.22069999442464905        2.0683064559762090     
  0.22079999442212284        2.0686733658952123     
  0.22089999441959662        2.0690401817549069     
  0.22099999441707041        2.0694069035704361     
  0.22109999441454420        2.0697735313569385     
  0.22119999441201799        2.0701400651295536     
  0.22129999440949177        2.0705065049034159     
  0.22139999440696556        2.0708728506936604     
  0.22149999440443935        2.0712391025154187     
  0.22159999440191314        2.0716052603838198     
  0.22169999439938692        2.0719713243139912     
  0.22179999439686071        2.0723372943210601     
  0.22189999439433450        2.0727031704201480     
  0.22199999439180829        2.0730689526263761     
  0.22209999438928207        2.0734346409548654     
  0.22219999438675586        2.0738002354207321     
  0.22229999438422965        2.0741657360390908     
  0.22239999438170344        2.0745311428250552     
  0.22249999437917722        2.0748964557937359     
  0.22259999437665101        2.0752616749602417     
  0.22269999437412480        2.0756268003396792     
  0.22279999437159859        2.0759918319471535     
  0.22289999436907237        2.0763567697977665     
  0.22299999436654616        2.0767216139066198     
  0.22309999436401995        2.0770863642888107     
  0.22319999436149374        2.0774510209594359     
  0.22329999435896752        2.0778155839335897     
  0.22339999435644131        2.0781800532263635     
  0.22349999435391510        2.0785444288528492     
  0.22359999435138889        2.0789087108281330     
  0.22369999434886267        2.0792728991673011     
  0.22379999434633646        2.0796369938854387     
  0.22389999434381025        2.0800009949976257     
  0.22399999434128404        2.0803649025189430     
  0.22409999433875782        2.0807287164644679     
  0.22419999433623161        2.0810924368492754     
  0.22429999433370540        2.0814560636884396     
  0.22439999433117919        2.0818195969970317     
  0.22449999432865297        2.0821830367901208     
  0.22459999432612676        2.0825463830827742     
  0.22469999432360055        2.0829096358900570     
  0.22479999432107434        2.0832727952270322     
  0.22489999431854812        2.0836358611087609     
  0.22499999431602191        2.0839988335503019     
  0.22509999431349570        2.0843617125667113     
  0.22519999431096949        2.0847244981730455     
  0.22529999430844327        2.0850871903843555     
  0.22539999430591706        2.0854497892156929     
  0.22549999430339085        2.0858122946821060     
  0.22559999430086464        2.0861747067986407     
  0.22569999429833842        2.0865370255803417     
  0.22579999429581221        2.0868992510422513     
  0.22589999429328600        2.0872613831994098     
  0.22599999429075979        2.0876234220668555     
  0.22609999428823357        2.0879853676596238     
  0.22619999428570736        2.0883472199927491     
  0.22629999428318115        2.0887089790812632     
