   0.0000000000000000        1.0000000000000000        6.1548461716544214     
   9.9999997473787516E-005   1.0006154180749101        6.1535153047321351     
   1.9999999494757503E-004   1.0012307030733585        6.1521846424276188     
   2.9999999242136255E-004   1.0018458550158056        6.1508541847132578     
   3.9999998989515007E-004   1.0024608739227090        6.1495239315614416     
   4.9999998736893758E-004   1.0030757598145237        6.1481938829445628     
   5.9999998484272510E-004   1.0036905127117017        6.1468640388350178     
   6.9999998231651261E-004   1.0043051326346923        6.1455343992052063     
   7.9999997979030013E-004   1.0049196196039423        6.1442049640275318     
   8.9999997726408765E-004   1.0055339736398952        6.1428757332744004     
   9.9999997473787516E-004   1.0061481947629922        6.1415467069182226     
   1.0999999722116627E-003   1.0067622829936718        6.1402178849314124     
   1.1999999696854502E-003   1.0073762383523694        6.1388892672863866     
   1.2999999671592377E-003   1.0079900608595178        6.1375608539555655     
   1.3999999646330252E-003   1.0086037505355472        6.1362326449113738     
   1.4999999621068127E-003   1.0092173074008848        6.1349046401262379     
   1.5999999595806003E-003   1.0098307314759549        6.1335768395725898     
   1.6999999570543878E-003   1.0104440227811795        6.1322492432228639     
   1.7999999545281753E-003   1.0110571813369775        6.1309218510494974     
   1.8999999520019628E-003   1.0116702071637653        6.1295946630249327     
   1.9999999494757503E-003   1.0122831002819563        6.1282676791216142     
   2.0999999469495378E-003   1.0128958607119614        6.1269408993119896     
   2.1999999444233254E-003   1.0135084884741883        6.1256143235685121     
   2.2999999418971129E-003   1.0141209835890426        6.1242879518636357     
   2.3999999393709004E-003   1.0147333460769266        6.1229617841698198     
   2.4999999368446879E-003   1.0153455759582399        6.1216358204595265     
   2.5999999343184754E-003   1.0159576732533797        6.1203100607052212     
   2.6999999317922629E-003   1.0165696379827400        6.1189845048793732     
   2.7999999292660505E-003   1.0171814701667126        6.1176591529544559     
   2.8999999267398380E-003   1.0177931698256859        6.1163340049029449     
   2.9999999242136255E-003   1.0184047369800460        6.1150090606973189     
   3.0999999216874130E-003   1.0190161716501760        6.1136843203100621     
   3.1999999191612005E-003   1.0196274738564564        6.1123597837136598     
   3.2999999166349880E-003   1.0202386436192650        6.1110354508806033     
   3.3999999141087756E-003   1.0208496809589767        6.1097113217833847     
   3.4999999115825631E-003   1.0214605858959638        6.1083873963945017     
   3.5999999090563506E-003   1.0220713584505956        6.1070636746864544     
   3.6999999065301381E-003   1.0226819986432389        6.1057401566317466     
   3.7999999040039256E-003   1.0232925064942577        6.1044168422028857     
   3.8999999014777131E-003   1.0239028820240133        6.1030937313723825     
   3.9999998989515007E-003   1.0245131252528639        6.1017708241127515     
   4.0999998964252882E-003   1.0251232362011653        6.1004481203965097     
   4.1999998938990757E-003   1.0257332148892704        6.0991256201961779     
   4.2999998913728632E-003   1.0263430613375295        6.0978033234842810     
   4.3999998888466507E-003   1.0269527755662902        6.0964812302333478     
   4.4999998863204382E-003   1.0275623575958970        6.0951593404159086     
   4.5999998837942258E-003   1.0281718074466921        6.0938376540044992     
   4.6999998812680133E-003   1.0287811251390147        6.0925161709716580     
   4.7999998787418008E-003   1.0293903106932010        6.0911948912899261     
   4.8999998762155883E-003   1.0299993641295850        6.0898738149318490     
   4.9999998736893758E-003   1.0306082854684977        6.0885529418699758     
   5.0999998711631633E-003   1.0312170747302671        6.0872322720768590     
   5.1999998686369509E-003   1.0318257319352191        6.0859118055250541     
   5.2999998661107384E-003   1.0324342571036762        6.0845915421871197     
   5.3999998635845259E-003   1.0330426502559584        6.0832714820356193     
   5.4999998610583134E-003   1.0336509114123831        6.0819516250431187     
   5.5999998585321009E-003   1.0342590405932648        6.0806319711821866     
   5.6999998560058884E-003   1.0348670378189151        6.0793125204253968     
   5.7999998534796759E-003   1.0354749031096433        6.0779932727453261     
   5.8999998509534635E-003   1.0360826364857556        6.0766742281145536     
   5.9999998484272510E-003   1.0366902379675556        6.0753553865056622     
   6.0999998459010385E-003   1.0372977075753438        6.0740367478912400     
   6.1999998433748260E-003   1.0379050453294187        6.0727183122438761     
   6.2999998408486135E-003   1.0385122512500755        6.0714000795361649     
   6.3999998383224010E-003   1.0391193253576068        6.0700820497407033     
   6.4999998357961886E-003   1.0397262676723023        6.0687642228300911     
   6.5999998332699761E-003   1.0403330782144493        6.0674465987769333     
   6.6999998307437636E-003   1.0409397570043322        6.0661291775538375     
   6.7999998282175511E-003   1.0415463040622324        6.0648119591334142     
   6.8999998256913386E-003   1.0421527194084290        6.0634949434882781     
   6.9999998231651261E-003   1.0427590030631981        6.0621781305910467     
   7.0999998206389137E-003   1.0433651550468133        6.0608615204143410     
   7.1999998181127012E-003   1.0439711753795449        6.0595451129307865     
   7.2999998155864887E-003   1.0445770640816612        6.0582289081130112     
   7.3999998130602762E-003   1.0451828211734271        6.0569129059336460     
   7.4999998105340637E-003   1.0457884466751053        6.0555971063653269     
   7.5999998080078512E-003   1.0463939406069556        6.0542815093806919     
   7.6999998054816388E-003   1.0469993029892348        6.0529661149523832     
   7.7999998029554263E-003   1.0476045338421973        6.0516509230530460     
   7.8999998004292138E-003   1.0482096331860946        6.0503359336553295     
   7.9999997979030013E-003   1.0488146010411754        6.0490211467318860     
   8.0999997953767888E-003   1.0494194374276860        6.0477065622553710     
   8.1999997928505763E-003   1.0500241423658694        6.0463921801984437     
   8.2999997903243639E-003   1.0506287158759664        6.0450780005337670     
   8.3999997877981514E-003   1.0512331579782148        6.0437640232340062     
   8.4999997852719389E-003   1.0518374686928498        6.0424502482718312     
   8.5999997827457264E-003   1.0524416480401035        6.0411366756199154     
   8.6999997802195139E-003   1.0530456960402059        6.0398233052509349     
   8.7999997776933014E-003   1.0536496127133839        6.0385101371375693     
   8.8999997751670890E-003   1.0542533980798614        6.0371971712525028     
   8.9999997726408765E-003   1.0548570521598601        6.0358844075684210     
   9.0999997701146640E-003   1.0554605749735988        6.0345718460580153     
   9.1999997675884515E-003   1.0560639665412934        6.0332594866939786     
   9.2999997650622390E-003   1.0566672268831572        6.0319473294490074     
   9.3999997625360265E-003   1.0572703560194008        6.0306353742958025     
   9.4999997600098141E-003   1.0578733539702319        6.0293236212070687     
   9.5999997574836016E-003   1.0584762207558556        6.0280120701555129     
   9.6999997549573891E-003   1.0590789563964742        6.0267007211138450     
   9.7999997524311766E-003   1.0596815609122874        6.0253895740547803     
   9.8999997499049641E-003   1.0602840343234921        6.0240786289510364     
   9.9999997473787516E-003   1.0608863766502825        6.0227678857753340     
   1.0099999744852539E-002   1.0614885879128499        6.0214573445003978     
   1.0199999742326327E-002   1.0620906681313833        6.0201470050989556     
   1.0299999739800114E-002   1.0626926173260685        6.0188368675437394     
   1.0399999737273902E-002   1.0632944355170886        6.0175269318074838     
   1.0499999734747689E-002   1.0638961227246244        6.0162171978629271     
   1.0599999732221477E-002   1.0644976789688536        6.0149076656828102     
   1.0699999729695264E-002   1.0650991042699514        6.0135983352398794     
   1.0799999727169052E-002   1.0657003986480897        6.0122892065068827     
   1.0899999724642839E-002   1.0663015621234386        6.0109802794565725     
   1.0999999722116627E-002   1.0669025947161650        6.0096715540617041     
   1.1099999719590414E-002   1.0675034964464329        6.0083630302950359     
   1.1199999717064202E-002   1.0681042673344039        6.0070547081293313     
   1.1299999714537989E-002   1.0687049074002366        6.0057465875373550     
   1.1399999712011777E-002   1.0693054166640870        6.0044386684918765     
   1.1499999709485564E-002   1.0699057951461084        6.0031309509656685     
   1.1599999706959352E-002   1.0705060428664515        6.0018234349315067     
   1.1699999704433139E-002   1.0711061598452640        6.0005161203621711     
   1.1799999701906927E-002   1.0717061461026911        5.9992090072304443     
   1.1899999699380714E-002   1.0723060016588752        5.9979020955091134     
   1.1999999696854502E-002   1.0729057265339559        5.9965953851709672     
   1.2099999694328289E-002   1.0735053207480703        5.9952888761887992     
   1.2199999691802077E-002   1.0741047843213525        5.9939825685354062     
   1.2299999689275865E-002   1.0747041172739340        5.9926764621835877     
   1.2399999686749652E-002   1.0753033196259438        5.9913705571061477     
   1.2499999684223440E-002   1.0759023913975079        5.9900648532758929     
   1.2599999681697227E-002   1.0765013326087496        5.9887593506656334     
   1.2699999679171015E-002   1.0771001432797895        5.9874540492481838     
   1.2799999676644802E-002   1.0776988234307456        5.9861489489963606     
   1.2899999674118590E-002   1.0782973730817331        5.9848440498829847     
   1.2999999671592377E-002   1.0788957922528644        5.9835393518808795     
   1.3099999669066165E-002   1.0794940809642493        5.9822348549628730     
   1.3199999666539952E-002   1.0800922392359948        5.9809305591017958     
   1.3299999664013740E-002   1.0806902670882055        5.9796264642704822     
   1.3399999661487527E-002   1.0812881645409826        5.9783225704417697     
   1.3499999658961315E-002   1.0818859316144254        5.9770188775884998     
   1.3599999656435102E-002   1.0824835683286298        5.9757153856835172     
   1.3699999653908890E-002   1.0830810747036894        5.9744120946996695     
   1.3799999651382677E-002   1.0836784507596950        5.9731090046098085     
   1.3899999648856465E-002   1.0842756965167346        5.9718061153867881     
   1.3999999646330252E-002   1.0848728119948936        5.9705034270034671     
   1.4099999643804040E-002   1.0854697972142544        5.9692009394327075     
   1.4199999641277827E-002   1.0860666521948972        5.9678986526473743     
   1.4299999638751615E-002   1.0866633769568990        5.9665965666203356     
   1.4399999636225402E-002   1.0872599715203342        5.9652946813244636     
   1.4499999633699190E-002   1.0878564359052747        5.9639929967326335     
   1.4599999631172977E-002   1.0884527701317894        5.9626915128177247     
   1.4699999628646765E-002   1.0890489742199447        5.9613902295526184     
   1.4799999626120552E-002   1.0896450481898043        5.9600891469102004     
   1.4899999623594340E-002   1.0902409920614291        5.9587882648633599     
   1.4999999621068127E-002   1.0908368058548772        5.9574875833849896     
   1.5099999618541915E-002   1.0914324895902043        5.9561871024479851     
   1.5199999616015702E-002   1.0920280432874629        5.9548868220252453     
   1.5299999613489490E-002   1.0926234669667034        5.9535867420896738     
   1.5399999610963278E-002   1.0932187606479729        5.9522868626141756     
   1.5499999608437065E-002   1.0938139243513161        5.9509871835716606     
   1.5599999605910853E-002   1.0944089580967751        5.9496877049350418     
   1.5699999603384640E-002   1.0950038619043889        5.9483884266772353     
   1.5799999600858428E-002   1.0955986357941943        5.9470893487711614     
   1.5899999598332215E-002   1.0961932797862248        5.9457904711897420     
   1.5999999595806003E-002   1.0967877939005117        5.9444917939059048     
   1.6099999593279790E-002   1.0973821781570834        5.9431933168925797     
   1.6199999590753578E-002   1.0979764325759656        5.9418950401226995     
   1.6299999588227365E-002   1.0985705571771811        5.9405969635692015     
   1.6399999585701153E-002   1.0991645519807505        5.9392990872050255     
   1.6499999583174940E-002   1.0997584170066912        5.9380014110031150     
   1.6599999580648728E-002   1.1003521522750181        5.9367039349364177     
   1.6699999578122515E-002   1.1009457578057433        5.9354066589778833     
   1.6799999575596303E-002   1.1015392336188765        5.9341095831004660     
   1.6899999573070090E-002   1.1021325797344241        5.9328127072771224     
   1.6999999570543878E-002   1.1027257961723904        5.9315160314808137     
   1.7099999568017665E-002   1.1033188829527767        5.9302195556845048     
   1.7199999565491453E-002   1.1039118400955816        5.9289232798611620     
   1.7299999562965240E-002   1.1045046676208012        5.9276272039837563     
   1.7399999560439028E-002   1.1050973655484286        5.9263313280252623     
   1.7499999557912815E-002   1.1056899338984545        5.9250356519586571     
   1.7599999555386603E-002   1.1062823726908666        5.9237401757569224     
   1.7699999552860390E-002   1.1068746819456501        5.9224448993930432     
   1.7799999550334178E-002   1.1074668616827874        5.9211498228400066     
   1.7899999547807965E-002   1.1080589119222581        5.9198549460708039     
   1.7999999545281753E-002   1.1086508326840394        5.9185602690584300     
   1.8099999542755540E-002   1.1092426239881057        5.9172657917758826     
   1.8199999540229328E-002   1.1098342858544283        5.9159715141961637     
   1.8299999537703115E-002   1.1104258183029765        5.9146774362922780     
   1.8399999535176903E-002   1.1110172213537164        5.9133835580372338     
   1.8499999532650691E-002   1.1116084950266114        5.9120898794040428     
   1.8599999530124478E-002   1.1121996393416225        5.9107964003657205     
   1.8699999527598266E-002   1.1127906543187078        5.9095031208952848     
   1.8799999525072053E-002   1.1133815399778229        5.9082100409657583     
   1.8899999522545841E-002   1.1139722963389203        5.9069171605501651     
   1.8999999520019628E-002   1.1145629234219501        5.9056244796215349     
   1.9099999517493416E-002   1.1151534212468597        5.9043319981528999     
   1.9199999514967203E-002   1.1157437898335936        5.9030397161172958     
   1.9299999512440991E-002   1.1163340292020940        5.9017476334877603     
   1.9399999509914778E-002   1.1169241393723000        5.9004557502373371     
   1.9499999507388566E-002   1.1175141203641481        5.8991640663390710     
   1.9599999504862353E-002   1.1181039721975723        5.8978725817660118     
   1.9699999502336141E-002   1.1186936948925039        5.8965812964912114     
   1.9799999499809928E-002   1.1192832884688713        5.8952902104877261     
   1.9899999497283716E-002   1.1198727529465999        5.8939993237286146     
   1.9999999494757503E-002   1.1204620883456133        5.8927086361869403     
   2.0099999492231291E-002   1.1210512946858318        5.8914181478357683     
   2.0199999489705078E-002   1.1216403719871728        5.8901278586481691     
   2.0299999487178866E-002   1.1222293202695517        5.8888377685972149     
   2.0399999484652653E-002   1.1228181395528805        5.8875478776559822     
   2.0499999482126441E-002   1.1234068298570690        5.8862581857975513     
   2.0599999479600228E-002   1.1239953912020240        5.8849686929950042     
   2.0699999477074016E-002   1.1245838236076497        5.8836793992214282     
   2.0799999474547803E-002   1.1251721270938480        5.8823903044499124     
   2.0899999472021591E-002   1.1257603016805175        5.8811014086535502     
   2.0999999469495378E-002   1.1263483473875544        5.8798127118054389     
   2.1099999466969166E-002   1.1269362642348522        5.8785242138786780     
   2.1199999464442953E-002   1.1275240522423016        5.8772359148463709     
   2.1299999461916741E-002   1.1281117114297909        5.8759478146816244     
   2.1399999459390529E-002   1.1286992418172055        5.8746599133575481     
   2.1499999456864316E-002   1.1292866434244280        5.8733722108472568     
   2.1599999454338104E-002   1.1298739162713383        5.8720847071238662     
   2.1699999451811891E-002   1.1304610603778140        5.8707974021604974     
   2.1799999449285679E-002   1.1310480757637296        5.8695102959302741     
   2.1899999446759466E-002   1.1316349624489572        5.8682233884063235     
   2.1999999444233254E-002   1.1322217204533660        5.8669366795617757     
   2.2099999441707041E-002   1.1328083497968227        5.8656501693697649     
   2.2199999439180829E-002   1.1333948504991909        5.8643638578034283     
   2.2299999436654616E-002   1.1339812225803321        5.8630777448359064     
   2.2399999434128404E-002   1.1345674660601048        5.8617918304403434     
   2.2499999431602191E-002   1.1351535809583648        5.8605061145898869     
   2.2599999429075979E-002   1.1357395672949655        5.8592205972576874     
   2.2699999426549766E-002   1.1363254250897570        5.8579352784168988     
   2.2799999424023554E-002   1.1369111543625874        5.8566501580406793     
   2.2899999421497341E-002   1.1374967551333017        5.8553652361021902     
   2.2999999418971129E-002   1.1380822274217424        5.8540805125745949     
   2.3099999416444916E-002   1.1386675712477490        5.8527959874310618     
   2.3199999413918704E-002   1.1392527866311588        5.8515116606447615     
   2.3299999411392491E-002   1.1398378735918062        5.8502275321888693     
   2.3399999408866279E-002   1.1404228321495229        5.8489436020365622     
   2.3499999406340066E-002   1.1410076623241376        5.8476598701610216     
   2.3599999403813854E-002   1.1415923641354770        5.8463763365354326     
   2.3699999401287641E-002   1.1421769376033648        5.8450930011329838     
   2.3799999398761429E-002   1.1427613827476217        5.8438098639268654     
   2.3899999396235216E-002   1.1433456995880662        5.8425269248902723     
   2.3999999393709004E-002   1.1439298881445137        5.8412441839964035     
   2.4099999391182791E-002   1.1445139484367772        5.8399616412184603     
   2.4199999388656579E-002   1.1450978804846670        5.8386792965296470     
   2.4299999386130366E-002   1.1456816843079907        5.8373971499031727     
   2.4399999383604154E-002   1.1462653599265531        5.8361152013122481     
   2.4499999381077942E-002   1.1468489073601567        5.8348334507300894     
   2.4599999378551729E-002   1.1474323266286006        5.8335518981299144     
   2.4699999376025517E-002   1.1480156177516820        5.8322705434849444     
   2.4799999373499304E-002   1.1485987807491951        5.8309893867684055     
   2.4899999370973092E-002   1.1491818156409310        5.8297084279535261     
   2.4999999368446879E-002   1.1497647224466789        5.8284276670135373     
   2.5099999365920667E-002   1.1503475011862250        5.8271471039216749     
   2.5199999363394454E-002   1.1509301518793524        5.8258667386511780     
   2.5299999360868242E-002   1.1515126745458422        5.8245865711752884     
   2.5399999358342029E-002   1.1520950692054723        5.8233066014672517     
   2.5499999355815817E-002   1.1526773358780185        5.8220268295003166     
   2.5599999353289604E-002   1.1532594745832534        5.8207472552477348     
   2.5699999350763392E-002   1.1538414853409469        5.8194678786827625     
   2.5799999348237179E-002   1.1544233681708667        5.8181886997786583     
   2.5899999345710967E-002   1.1550051230927774        5.8169097185086844     
   2.5999999343184754E-002   1.1555867501264412        5.8156309348461068     
   2.6099999340658542E-002   1.1561682492916174        5.8143523487641939     
   2.6199999338132329E-002   1.1567496206080627        5.8130739602362187     
   2.6299999335606117E-002   1.1573308640955313        5.8117957692354567     
   2.6399999333079904E-002   1.1579119797737745        5.8105177757351871     
   2.6499999330553692E-002   1.1584929676625408        5.8092399797086927     
   2.6599999328027479E-002   1.1590738277815766        5.8079623811292587     
   2.6699999325501267E-002   1.1596545601506252        5.8066849799701750     
   2.6799999322975054E-002   1.1602351647894271        5.8054077762047340     
   2.6899999320448842E-002   1.1608156417177204        5.8041307698062319     
   2.6999999317922629E-002   1.1613959909552405        5.8028539607479681     
   2.7099999315396417E-002   1.1619762125217201        5.8015773490032450     
   2.7199999312870204E-002   1.1625563064368893        5.8003009345453682     
   2.7299999310343992E-002   1.1631362727204753        5.7990247173476481     
   2.7399999307817779E-002   1.1637161113922028        5.7977486973833967     
   2.7499999305291567E-002   1.1642958224717939        5.7964728746259304     
   2.7599999302765355E-002   1.1648754059789679        5.7951972490485693     
   2.7699999300239142E-002   1.1654548619334415        5.7939218206246359     
   2.7799999297712930E-002   1.1660341903549287        5.7926465893274557     
   2.7899999295186717E-002   1.1666133912631409        5.7913715551303593     
   2.7999999292660505E-002   1.1671924646777865        5.7900967180066791     
   2.8099999290134292E-002   1.1677714106185717        5.7888220779297521     
   2.8199999287608080E-002   1.1683502291051999        5.7875476348729178     
   2.8299999285081867E-002   1.1689289201573718        5.7862733888095192     
   2.8399999282555655E-002   1.1695074837947854        5.7849993397129031     
   2.8499999280029442E-002   1.1700859200371359        5.7837254875564188     
   2.8599999277503230E-002   1.1706642289041160        5.7824518323134191     
   2.8699999274977017E-002   1.1712424104154160        5.7811783739572613     
   2.8799999272450805E-002   1.1718204645907229        5.7799051124613054     
   2.8899999269924592E-002   1.1723983914497216        5.7786320477989142     
   2.8999999267398380E-002   1.1729761910120939        5.7773591799434536     
   2.9099999264872167E-002   1.1735538632975195        5.7760865088682944     
   2.9199999262345955E-002   1.1741314083256749        5.7748140345468100     
   2.9299999259819742E-002   1.1747088261162340        5.7735417569523770     
   2.9399999257293530E-002   1.1752861166888684        5.7722696760583752     
   2.9499999254767317E-002   1.1758632800632467        5.7709977918381883     
   2.9599999252241105E-002   1.1764403162590351        5.7697261042652030     
   2.9699999249714892E-002   1.1770172252958968        5.7684546133128087     
   2.9799999247188680E-002   1.1775940071934925        5.7671833189544000     
   2.9899999244662467E-002   1.1781706619714805        5.7659122211633722     
   2.9999999242136255E-002   1.1787471896495161        5.7646413199131272     
   3.0099999239610042E-002   1.1793235902472519        5.7633706151770676     
   3.0199999237083830E-002   1.1798998637843381        5.7621001069286004     
   3.0299999234557617E-002   1.1804760102804221        5.7608297951411354     
   3.0399999232031405E-002   1.1810520297551490        5.7595596797880866     
   3.0499999229505192E-002   1.1816279222281605        5.7582897608428709     
   3.0599999226978980E-002   1.1822036877190962        5.7570200382789087     
   3.0699999224452768E-002   1.1827793262475930        5.7557505120696231     
   3.0799999221926555E-002   1.1833548378332848        5.7544811821884414     
   3.0899999219400343E-002   1.1839302224958030        5.7532120486087939     
   3.0999999216874130E-002   1.1845054802547768        5.7519431113041142     
   3.1099999214347918E-002   1.1850806111298322        5.7506743702478396     
   3.1199999211821705E-002   1.1856556151405928        5.7494058254134108     
   3.1299999209295493E-002   1.1862304923066793        5.7481374767742706     
   3.1399999206769280E-002   1.1868052426477100        5.7468693243038667     
   3.1499999204243068E-002   1.1873798661833004        5.7456013679756497     
   3.1599999201716855E-002   1.1879543629330633        5.7443336077630729     
   3.1699999199190643E-002   1.1885287329166092        5.7430660436395939     
   3.1799999196664430E-002   1.1891029761535454        5.7417986755786732     
   3.1899999194138218E-002   1.1896770926634770        5.7405315035537736     
   3.1999999191612005E-002   1.1902510824660062        5.7392645275383636     
   3.2099999189085793E-002   1.1908249455807327        5.7379977475059132     
   3.2199999186559580E-002   1.1913986820272533        5.7367311634298961     
   3.2299999184033368E-002   1.1919722918251625        5.7354647752837895     
   3.2399999181507155E-002   1.1925457749940520        5.7341985830410742     
   3.2499999178980943E-002   1.1931191315535106        5.7329325866752336     
   3.2599999176454730E-002   1.1936923615231247        5.7316667861597557     
   3.2699999173928518E-002   1.1942654649224782        5.7304011814681308     
   3.2799999171402305E-002   1.1948384417711522        5.7291357725738523     
   3.2899999168876093E-002   1.1954112920887248        5.7278705594504178     
   3.2999999166349880E-002   1.1959840158947719        5.7266055420713284     
   3.3099999163823668E-002   1.1965566132088667        5.7253407204100872     
   3.3199999161297455E-002   1.1971290840505797        5.7240760944402025     
   3.3299999158771243E-002   1.1977014284394785        5.7228116641351843     
   3.3399999156245030E-002   1.1982736463951282        5.7215474294685462     
   3.3499999153718818E-002   1.1988457379370916        5.7202833904138064     
   3.3599999151192605E-002   1.1994177030849285        5.7190195469444847     
   3.3699999148666393E-002   1.1999895418581961        5.7177558990341053     
   3.3799999146140181E-002   1.2005612542764488        5.7164924466561962     
   3.3899999143613968E-002   1.2011328403592387        5.7152291897842877     
   3.3999999141087756E-002   1.2017043001261152        5.7139661283919132     
   3.4099999138561543E-002   1.2022756335966245        5.7127032624526111     
   3.4199999136035331E-002   1.2028468407903110        5.7114405919399216     
   3.4299999133509118E-002   1.2034179217267158        5.7101781168273886     
   3.4399999130982906E-002   1.2039888764253777        5.7089158370885595     
   3.4499999128456693E-002   1.2045597049058328        5.7076537526969853     
   3.4599999125930481E-002   1.2051304071876143        5.7063918636262194     
   3.4699999123404268E-002   1.2057009832902532        5.7051301698498200     
   3.4799999120878056E-002   1.2062714332332776        5.7038686713413478     
   3.4899999118351843E-002   1.2068417570362127        5.7026073680743661     
   3.4999999115825631E-002   1.2074119547185815        5.7013462600224427     
   3.5099999113299418E-002   1.2079820262999044        5.7000853471591482     
   3.5199999110773206E-002   1.2085519717996984        5.6988246294580565     
   3.5299999108246993E-002   1.2091217912374790        5.6975641068927452     
   3.5399999105720781E-002   1.2096914846327580        5.6963037794367946     
   3.5499999103194568E-002   1.2102610520050452        5.6950436470637893     
   3.5599999100668356E-002   1.2108304933738476        5.6937837097473167     
   3.5699999098142143E-002   1.2113998087586695        5.6925239674609678     
   3.5799999095615931E-002   1.2119689981790127        5.6912644201783360     
   3.5899999093089718E-002   1.2125380616543762        5.6900050678730185     
   3.5999999090563506E-002   1.2131069992042562        5.6887459105186160     
   3.6099999088037293E-002   1.2136758108481467        5.6874869480887336     
   3.6199999085511081E-002   1.2142444966055388        5.6862281805569772     
   3.6299999082984868E-002   1.2148130564959210        5.6849696078969583     
   3.6399999080458656E-002   1.2153814905387790        5.6837112300822907     
   3.6499999077932443E-002   1.2159497987535961        5.6824530470865922     
   3.6599999075406231E-002   1.2165179811598530        5.6811950588834828     
   3.6699999072880019E-002   1.2170860377770276        5.6799372654465872     
   3.6799999070353806E-002   1.2176539686245951        5.6786796667495318     
   3.6899999067827594E-002   1.2182217737220282        5.6774222627659485     
   3.6999999065301381E-002   1.2187894530887970        5.6761650534694708     
   3.7099999062775169E-002   1.2193570067443689        5.6749080388337356     
   3.7199999060248956E-002   1.2199244347082083        5.6736512188323838     
   3.7299999057722744E-002   1.2204917369997779        5.6723945934390594     
   3.7399999055196531E-002   1.2210589136385368        5.6711381626274093     
   3.7499999052670319E-002   1.2216259646439420        5.6698819263710840     
   3.7599999050144106E-002   1.2221928900354475        5.6686258846437383     
   3.7699999047617894E-002   1.2227596898325050        5.6673700374190288     
   3.7799999045091681E-002   1.2233263640545637        5.6661143846706166     
   3.7899999042565469E-002   1.2238929127210696        5.6648589263721654     
   3.7999999040039256E-002   1.2244593358514666        5.6636036624973416     
   3.8099999037513044E-002   1.2250256334651957        5.6623485930198170     
   3.8199999034986831E-002   1.2255918055816950        5.6610937179132650     
   3.8299999032460619E-002   1.2261578522204006        5.6598390371513627     
   3.8399999029934406E-002   1.2267237734007457        5.6585845507077899     
   3.8499999027408194E-002   1.2272895691421606        5.6573302585562315     
   3.8599999024881981E-002   1.2278552394640734        5.6560761606703744     
   3.8699999022355769E-002   1.2284207843859092        5.6548222570239091     
   3.8799999019829556E-002   1.2289862039270905        5.6535685475905293     
   3.8899999017303344E-002   1.2295514981070375        5.6523150323439317     
   3.8999999014777131E-002   1.2301166669451675        5.6510617112578174     
   3.9099999012250919E-002   1.2306817104608954        5.6498085843058892     
   3.9199999009724706E-002   1.2312466286736330        5.6485556514618551     
   3.9299999007198494E-002   1.2318114216027900        5.6473029126994252     
   3.9399999004672281E-002   1.2323760892677731        5.6460503679923129     
   3.9499999002146069E-002   1.2329406316879865        5.6447980173142351     
   3.9599998999619856E-002   1.2335050488828321        5.6435458606389126     
   3.9699998997093644E-002   1.2340693408717085        5.6422938979400694     
   3.9799998994567432E-002   1.2346335076740123        5.6410421291914323     
   3.9899998992041219E-002   1.2351975493091369        5.6397905543667308     
   3.9999998989515007E-002   1.2357614657964737        5.6385391734396988     
   4.0099998986988794E-002   1.2363252571554111        5.6372879863840737     
   4.0199998984462582E-002   1.2368889234053346        5.6360369931735956     
   4.0299998981936369E-002   1.2374524645656277        5.6347861937820074     
   4.0399998979410157E-002   1.2380158806556711        5.6335355881830562     
   4.0499998976883944E-002   1.2385791716948424        5.6322851763504929     
   4.0599998974357732E-002   1.2391423377025172        5.6310349582580699     
   4.0699998971831519E-002   1.2397053786980681        5.6297849338795443     
   4.0799998969305307E-002   1.2402682947008652        5.6285351031886766     
   4.0899998966779094E-002   1.2408310857302760        5.6272854661592300     
   4.0999998964252882E-002   1.2413937518056652        5.6260360227649713     
   4.1099998961726669E-002   1.2419562929463950        5.6247867729796699     
   4.1199998959200457E-002   1.2425187091718251        5.6235377167770997     
   4.1299998956674244E-002   1.2430810005013124        5.6222888541310372     
   4.1399998954148032E-002   1.2436431669542114        5.6210401850152625     
   4.1499998951621819E-002   1.2442052085498736        5.6197917094035583     
   4.1599998949095607E-002   1.2447671253076482        5.6185434272697119     
   4.1699998946569394E-002   1.2453289172468816        5.6172953385875131     
   4.1799998944043182E-002   1.2458905843869177        5.6160474433307543     
   4.1899998941516969E-002   1.2464521267470976        5.6147997414732327     
   4.1999998938990757E-002   1.2470135443467603        5.6135522329887477     
   4.2099998936464544E-002   1.2475748372052413        5.6123049178511026     
   4.2199998933938332E-002   1.2481360053418744        5.6110577960341042     
   4.2299998931412119E-002   1.2486970487759901        5.6098108675115617     
   4.2399998928885907E-002   1.2492579675269166        5.6085641322572881     
   4.2499998926359694E-002   1.2498187616139795        5.6073175902451000     
   4.2599998923833482E-002   1.2503794310565015        5.6060712414488174     
   4.2699998921307269E-002   1.2509399758738031        5.6048250858422621     
   4.2799998918781057E-002   1.2515003960852018        5.6035791233992613     
   4.2899998916254845E-002   1.2520606917100128        5.6023333540936440     
   4.2999998913728632E-002   1.2526208627675484        5.6010877778992434     
   4.3099998911202420E-002   1.2531809092771184        5.5998423947898948     
   4.3199998908676207E-002   1.2537408312580303        5.5985972047394386     
   4.3299998906149995E-002   1.2543006287295884        5.5973522077217170     
   4.3399998903623782E-002   1.2548603017110946        5.5961074037105769     
   4.3499998901097570E-002   1.2554198502218483        5.5948627926798666     
   4.3599998898571357E-002   1.2559792742811464        5.5936183746034391     
   4.3699998896045145E-002   1.2565385739082828        5.5923741494551500     
   4.3799998893518932E-002   1.2570977491225492        5.5911301172088592     
   4.3899998890992720E-002   1.2576567999432344        5.5898862778384286     
   4.3999998888466507E-002   1.2582157263896248        5.5886426313177244     
   4.4099998885940295E-002   1.2587745284810039        5.5873991776206156     
   4.4199998883414082E-002   1.2593332062366529        5.5861559167209753     
   4.4299998880887870E-002   1.2598917596758501        5.5849128485926780     
   4.4399998878361657E-002   1.2604501888178714        5.5836699732096040     
   4.4499998875835445E-002   1.2610084936819899        5.5824272905456347     
   4.4599998873309232E-002   1.2615666742874763        5.5811848005746558     
   4.4699998870783020E-002   1.2621247306535985        5.5799425032705567     
   4.4799998868256807E-002   1.2626826627996222        5.5787003986072294     
   4.4899998865730595E-002   1.2632404707448099        5.5774584865585695     
   4.4999998863204382E-002   1.2637981545084218        5.5762167670984750     
   4.5099998860678170E-002   1.2643557141097155        5.5749752402008488     
   4.5199998858151957E-002   1.2649131495679458        5.5737339058395960     
   4.5299998855625745E-002   1.2654704609023653        5.5724927639886257     
   4.5399998853099532E-002   1.2660276481322235        5.5712518146218493     
   4.5499998850573320E-002   1.2665847112767676        5.5700110577131827     
   4.5599998848047107E-002   1.2671416503552422        5.5687704932365438     
   4.5699998845520895E-002   1.2676984653868890        5.5675301211658548     
   4.5799998842994682E-002   1.2682551563909474        5.5662899414750413     
   4.5899998840468470E-002   1.2688117233866540        5.5650499541380309     
   4.5999998837942258E-002   1.2693681663932430        5.5638101591287557     
   4.6099998835416045E-002   1.2699244854299458        5.5625705564211501     
   4.6199998832889833E-002   1.2704806805159912        5.5613311459891532     
   4.6299998830363620E-002   1.2710367516706056        5.5600919278067060     
   4.6399998827837408E-002   1.2715926989130124        5.5588529018477537     
   4.6499998825311195E-002   1.2721485222624329        5.5576140680862451     
   4.6599998822784983E-002   1.2727042217380855        5.5563754264961309     
   4.6699998820258770E-002   1.2732597973591862        5.5551369770513661     
   4.6799998817732558E-002   1.2738152491449479        5.5538987197259084     
   4.6899998815206345E-002   1.2743705771145815        5.5526606544937192     
   4.6999998812680133E-002   1.2749257812872947        5.5514227813287631     
   4.7099998810153920E-002   1.2754808616822932        5.5501851002050078     
   4.7199998807627708E-002   1.2760358183187797        5.5489476110964251     
   4.7299998805101495E-002   1.2765906512159544        5.5477103139769888     
   4.7399998802575283E-002   1.2771453603930150        5.5464732088206770     
   4.7499998800049070E-002   1.2776999458691565        5.5452362956014714     
   4.7599998797522858E-002   1.2782544076635713        5.5439995742933554     
   4.7699998794996645E-002   1.2788087457954493        5.5427630448703162     
   4.7799998792470433E-002   1.2793629602839776        5.5415267073063461     
   4.7899998789944220E-002   1.2799170511483406        5.5402905615754383     
   4.7999998787418008E-002   1.2804710184077206        5.5390546076515896     
   4.8099998784891795E-002   1.2810248620812970        5.5378188455088022     
   4.8199998782365583E-002   1.2815785821882464        5.5365832751210791     
   4.8299998779839370E-002   1.2821321787477431        5.5353478964624276     
   4.8399998777313158E-002   1.2826856517789589        5.5341127095068590     
   4.8499998774786945E-002   1.2832390013010626        5.5328777142283867     
   4.8599998772260733E-002   1.2837922273332207        5.5316429106010281     
   4.8699998769734520E-002   1.2843453298945970        5.5304082985988030     
   4.8799998767208308E-002   1.2848983090043526        5.5291738781957358     
   4.8899998764682095E-002   1.2854511646816462        5.5279396493658526     
   4.8999998762155883E-002   1.2860038969456340        5.5267056120831848     
   4.9099998759629671E-002   1.2865565058154691        5.5254717663217647     
   4.9199998757103458E-002   1.2871089913103024        5.5242381120556301     
   4.9299998754577246E-002   1.2876613534492825        5.5230046492588203     
   4.9399998752051033E-002   1.2882135922515545        5.5217713779053792     
   4.9499998749524821E-002   1.2887657077362618        5.5205382979693534     
   4.9599998746998608E-002   1.2893176999225446        5.5193054094247929     
   4.9699998744472396E-002   1.2898695688295410        5.5180727122457505     
   4.9799998741946183E-002   1.2904213144763861        5.5168402064062834     
   4.9899998739419971E-002   1.2909729368822125        5.5156078918804505     
   4.9999998736893758E-002   1.2915244360661504        5.5143757686423154     
   5.0099998734367546E-002   1.2920758120473272        5.5131438366659440     
   5.0199998731841333E-002   1.2926270648448679        5.5119120959254060     
   5.0299998729315121E-002   1.2931781944778946        5.5106805463947737     
   5.0399998726788908E-002   1.2937292009655272        5.5094491880481238     
   5.0499998724262696E-002   1.2942800843268827        5.5082180208595357     
   5.0599998721736483E-002   1.2948308445810754        5.5069870448030915     
   5.0699998719210271E-002   1.2953814817472176        5.5057562598528778     
   5.0799998716684058E-002   1.2959319958444184        5.5045256659829835     
   5.0899998714157846E-002   1.2964823868917847        5.5032952631675016     
   5.0999998711631633E-002   1.2970326549084206        5.5020650513805274     
   5.1099998709105421E-002   1.2975827999134275        5.5008350305961597     
   5.1199998706579208E-002   1.2981328219259045        5.4996052007885003     
   5.1299998704052996E-002   1.2986827209649479        5.4983755619316561     
   5.1399998701526783E-002   1.2992324970496514        5.4971461139997349     
   5.1499998699000571E-002   1.2997821501991063        5.4959168569668488     
   5.1599998696474358E-002   1.3003316804324012        5.4946877908071139     
   5.1699998693948146E-002   1.3008810877686223        5.4934589154946476     
   5.1799998691421933E-002   1.3014303722268528        5.4922302310035729     
   5.1899998688895721E-002   1.3019795338261737        5.4910017373080144     
   5.1999998686369509E-002   1.3025285725856632        5.4897734343821005     
   5.2099998683843296E-002   1.3030774885243970        5.4885453221999638     
   5.2199998681317084E-002   1.3036262816614481        5.4873174007357379     
   5.2299998678790871E-002   1.3041749520158870        5.4860896699635617     
   5.2399998676264659E-002   1.3047234996067816        5.4848621298575768     
   5.2499998673738446E-002   1.3052719244531972        5.4836347803919283     
   5.2599998671212234E-002   1.3058202265741967        5.4824076215407631     
   5.2699998668686021E-002   1.3063684059888403        5.4811806532782335     
   5.2799998666159809E-002   1.3069164627161853        5.4799538755784933     
   5.2899998663633596E-002   1.3074643967752868        5.4787272884157012     
   5.2999998661107384E-002   1.3080122081851973        5.4775008917640173     
   5.3099998658581171E-002   1.3085598969649666        5.4762746855976063     
   5.3199998656054959E-002   1.3091074631336419        5.4750486698906355     
   5.3299998653528746E-002   1.3096549067102679        5.4738228446172768     
   5.3399998651002534E-002   1.3102022277138865        5.4725972097517035     
   5.3499998648476321E-002   1.3107494261635373        5.4713717652680929     
   5.3599998645950109E-002   1.3112965020782572        5.4701465111406256     
   5.3699998643423896E-002   1.3118434554770806        5.4689214473434857     
   5.3799998640897684E-002   1.3123902863790391        5.4676965738508603     
   5.3899998638371471E-002   1.3129369948031619        5.4664718906369396     
   5.3999998635845259E-002   1.3134835807684757        5.4652473976759177     
   5.4099998633319046E-002   1.3140300442940043        5.4640230949419912     
   5.4199998630792834E-002   1.3145763853987693        5.4627989824093603     
   5.4299998628266621E-002   1.3151226041017894        5.4615750600522288     
   5.4399998625740409E-002   1.3156687004220811        5.4603513278448030     
   5.4499998623214196E-002   1.3162146743786578        5.4591277857612930     
   5.4599998620687984E-002   1.3167605259905306        5.4579044337759122     
   5.4699998618161771E-002   1.3173062552767083        5.4566812718628768     
   5.4799998615635559E-002   1.3178518622561965        5.4554582999964065     
   5.4899998613109346E-002   1.3183973469479990        5.4542355181507247     
   5.4999998610583134E-002   1.3189427093711164        5.4530129263000573     
   5.5099998608056922E-002   1.3194879495445466        5.4517905244186338     
   5.5199998605530709E-002   1.3200330674872855        5.4505683124806872     
   5.5299998603004497E-002   1.3205780632183264        5.4493462904604533     
   5.5399998600478284E-002   1.3211229367566593        5.4481244583321713     
   5.5499998597952072E-002   1.3216676881212723        5.4469028160700841     
   5.5599998595425859E-002   1.3222123173311509        5.4456813636484371     
   5.5699998592899647E-002   1.3227568244052776        5.4444601010414795     
   5.5799998590373434E-002   1.3233012093626328        5.4432390282234628     
   5.5899998587847222E-002   1.3238454722221942        5.4420181451686434     
   5.5999998585321009E-002   1.3243896130029364        5.4407974518512798     
   5.6099998582794797E-002   1.3249336317238323        5.4395769482456346     
   5.6199998580268584E-002   1.3254775284038514        5.4383566343259719     
   5.6299998577742372E-002   1.3260213030619612        5.4371365100665612     
   5.6399998575216159E-002   1.3265649557171266        5.4359165754416736     
   5.6499998572689947E-002   1.3271084863883096        5.4346968304255840     
   5.6599998570163734E-002   1.3276518950944698        5.4334772749925717     
   5.6699998567637522E-002   1.3281951818545641        5.4322579091169176     
   5.6799998565111309E-002   1.3287383466875471        5.4310387327729064     
   5.6899998562585097E-002   1.3292813896123707        5.4298197459348261     
   5.6999998560058884E-002   1.3298243106479841        5.4286009485769675     
   5.7099998557532672E-002   1.3303671098133343        5.4273823406736259     
   5.7199998555006459E-002   1.3309097871273652        5.4261639221990983     
   5.7299998552480247E-002   1.3314523426090183        5.4249456931276860     
   5.7399998549954034E-002   1.3319947762772328        5.4237276534336933     
   5.7499998547427822E-002   1.3325370881509453        5.4225098030914278     
   5.7599998544901609E-002   1.3330792782490894        5.4212921420752007     
   5.7699998542375397E-002   1.3336213465905966        5.4200746703593250     
   5.7799998539849184E-002   1.3341632931943956        5.4188573879181181     
   5.7899998537322972E-002   1.3347051180794127        5.4176402947259010     
   5.7999998534796759E-002   1.3352468212645714        5.4164233907569974     
   5.8099998532270547E-002   1.3357884027687927        5.4152066759857336     
   5.8199998529744335E-002   1.3363298626109952        5.4139901503864403     
   5.8299998527218122E-002   1.3368712008100947        5.4127738139334509     
   5.8399998524691910E-002   1.3374124173850046        5.4115576666011016     
   5.8499998522165697E-002   1.3379535123546356        5.4103417083637328     
   5.8599998519639485E-002   1.3384944857378960        5.4091259391956878     
   5.8699998517113272E-002   1.3390353375536914        5.4079103590713125     
   5.8799998514587060E-002   1.3395760678209250        5.4066949679649561     
   5.8899998512060847E-002   1.3401166765584973        5.4054797658509726     
   5.8999998509534635E-002   1.3406571637853062        5.4042647527037175     
   5.9099998507008422E-002   1.3411975295202470        5.4030499284975502     
   5.9199998504482210E-002   1.3417377737822127        5.4018352932068332     
   5.9299998501955997E-002   1.3422778965900934        5.4006208468059329     
   5.9399998499429785E-002   1.3428178979627770        5.3994065892692173     
   5.9499998496903572E-002   1.3433577779191483        5.3981925205710599     
   5.9599998494377360E-002   1.3438975364780903        5.3969786406858358     
   5.9699998491851147E-002   1.3444371736584828        5.3957649495879236     
   5.9799998489324935E-002   1.3449766894792032        5.3945514472517049     
   5.9899998486798722E-002   1.3455160839591265        5.3933381336515653     
   5.9999998484272510E-002   1.3460553571171250        5.3921250087618935     
   6.0099998481746297E-002   1.3465945089720683        5.3909120725570814     
   6.0199998479220085E-002   1.3471335395428239        5.3896993250115237     
   6.0299998476693872E-002   1.3476724488482561        5.3884867660996179     
   6.0399998474167660E-002   1.3482112369072272        5.3872743957957665     
   6.0499998471641447E-002   1.3487499037385968        5.3860622140743732     
   6.0599998469115235E-002   1.3492884493612218        5.3848502209098470     
   6.0699998466589022E-002   1.3498268737939565        5.3836384162765984     
   6.0799998464062810E-002   1.3503651770556528        5.3824268001490418     
   6.0899998461536597E-002   1.3509033591651600        5.3812153725015941     
   6.0999998459010385E-002   1.3514414201413250        5.3800041333086774     
   6.1099998456484172E-002   1.3519793600029917        5.3787930825447150     
   6.1199998453957960E-002   1.3525171787690018        5.3775822201841343     
   6.1299998451431748E-002   1.3530548764581944        5.3763715462013657     
   6.1399998448905535E-002   1.3535924530894061        5.3751610605708429     
   6.1499998446379323E-002   1.3541299086814707        5.3739507632670032     
   6.1599998443853110E-002   1.3546672432532196        5.3727406542642857     
   6.1699998441326898E-002   1.3552044568234818        5.3715307335371349     
   6.1799998438800685E-002   1.3557415494110834        5.3703210010599971     
   6.1899998436274473E-002   1.3562785210348480        5.3691114568073228     
   6.1999998433748260E-002   1.3568153717135971        5.3679021007535646     
   6.2099998431222048E-002   1.3573521014661492        5.3666929328731783     
   6.2199998428695835E-002   1.3578887103113202        5.3654839531406244     
   6.2299998426169623E-002   1.3584251982679236        5.3642751615303652     
   6.2399998423643410E-002   1.3589615653547706        5.3630665580168664     
   6.2499998421117198E-002   1.3594978115906695        5.3618581425745981     
   6.2599998418590985E-002   1.3600339369944261        5.3606499151780325     
   6.2699998416064773E-002   1.3605699415848438        5.3594418758016449     
   6.2799998413538560E-002   1.3611058253807231        5.3582340244199145     
   6.2899998411012348E-002   1.3616415884008624        5.3570263610073230     
   6.2999998408486135E-002   1.3621772306640574        5.3558188855383557     
   6.3099998405959923E-002   1.3627127521891009        5.3546115979875024     
   6.3199998403433710E-002   1.3632481529947837        5.3534044983292537     
   6.3299998400907498E-002   1.3637834330998937        5.3521975865381046     
   6.3399998398381285E-002   1.3643185925232164        5.3509908625885538     
   6.3499998395855073E-002   1.3648536312835347        5.3497843264551026     
   6.3599998393328860E-002   1.3653885493996287        5.3485779781122558     
   6.3699998390802648E-002   1.3659233468902763        5.3473718175345217     
   6.3799998388276435E-002   1.3664580237742527        5.3461658446964107     
   6.3899998385750223E-002   1.3669925800703309        5.3449600595724380     
   6.3999998383224010E-002   1.3675270157972805        5.3437544621371202     
   6.4099998380697798E-002   1.3680613309738696        5.3425490523649790     
   6.4199998378171586E-002   1.3685955256188629        5.3413438302305378     
   6.4299998375645373E-002   1.3691295997510231        5.3401387957083237     
   6.4399998373119161E-002   1.3696635533891102        5.3389339487728682     
   6.4499998370592948E-002   1.3701973865518813        5.3377292893987036     
   6.4599998368066736E-002   1.3707310992580914        5.3365248175603677     
   6.4699998365540523E-002   1.3712646915264930        5.3353205332323999     
   6.4799998363014311E-002   1.3717981633758356        5.3341164363893441     
   6.4899998360488098E-002   1.3723315148248667        5.3329125270057469     
   6.4999998357961886E-002   1.3728647458923307        5.3317088050561576     
   6.5099998355435673E-002   1.3733978565969698        5.3305052705151290     
   6.5199998352909461E-002   1.3739308469575235        5.3293019233572183     
   6.5299998350383248E-002   1.3744637169927292        5.3280987635569836     
   6.5399998347857036E-002   1.3749964667213210        5.3268957910889885     
   6.5499998345330823E-002   1.3755290961620312        5.3256930059277980     
   6.5599998342804611E-002   1.3760616053335890        5.3244904080479820     
   6.5699998340278398E-002   1.3765939942547212        5.3232879974241119     
   6.5799998337752186E-002   1.3771262629441521        5.3220857740307634     
   6.5899998335225973E-002   1.3776584114206036        5.3208837378425153     
   6.5999998332699761E-002   1.3781904397027951        5.3196818888339497     
   6.6099998330173548E-002   1.3787223478094430        5.3184802269796521     
   6.6199998327647336E-002   1.3792541357592616        5.3172787522542100     
   6.6299998325121123E-002   1.3797858035709625        5.3160774646322153     
   6.6399998322594911E-002   1.3803173512632547        5.3148763640882626     
   6.6499998320068698E-002   1.3808487788548449        5.3136754505969499     
   6.6599998317542486E-002   1.3813800863644370        5.3124747241328780     
   6.6699998315016273E-002   1.3819112738107324        5.3112741846706513     
   6.6799998312490061E-002   1.3824423412124300        5.3100738321848775     
   6.6899998309963848E-002   1.3829732885882264        5.3088736666501672     
   6.6999998307437636E-002   1.3835041159568153        5.3076736880411355     
   6.7099998304911423E-002   1.3840348233368880        5.3064738963323981     
   6.7199998302385211E-002   1.3845654107471330        5.3052742914985762     
   6.7299998299858999E-002   1.3850958782062368        5.3040748735142937     
   6.7399998297332786E-002   1.3856262257328831        5.3028756423541763     
   6.7499998294806574E-002   1.3861564533457531        5.3016765979928548     
   6.7599998292280361E-002   1.3866865610635253        5.3004777404049621     
   6.7699998289754149E-002   1.3872165489048758        5.2992790695651353     
   6.7799998287227936E-002   1.3877464168884781        5.2980805854480133     
   6.7899998284701724E-002   1.3882761650330031        5.2968822880282396     
   6.7999998282175511E-002   1.3888057933571194        5.2956841772804593     
   6.8099998279649299E-002   1.3893353018794929        5.2944862531793220     
   6.8199998277123086E-002   1.3898646906187870        5.2932885156994809     
   6.8299998274596874E-002   1.3903939595936627        5.2920909648155909     
   6.8399998272070661E-002   1.3909231088227783        5.2908936005023106     
   6.8499998269544449E-002   1.3914521383247893        5.2896964227343028     
   6.8599998267018236E-002   1.3919810481183492        5.2884994314862324     
   6.8699998264492024E-002   1.3925098382221088        5.2873026267327674     
   6.8799998261965811E-002   1.3930385086547161        5.2861060084485798     
   6.8899998259439599E-002   1.3935670594348168        5.2849095766083449     
   6.8999998256913386E-002   1.3940954905810541        5.2837133311867408     
   6.9099998254387174E-002   1.3946238021120685        5.2825172721584481     
   6.9199998251860961E-002   1.3951519940464983        5.2813213994981520     
   6.9299998249334749E-002   1.3956800664029787        5.2801257131805395     
   6.9399998246808536E-002   1.3962080192001429        5.2789302131803018     
   6.9499998244282324E-002   1.3967358524566216        5.2777348994721329     
   6.9599998241756111E-002   1.3972635661910422        5.2765397720307297     
   6.9699998239229899E-002   1.3977911604220306        5.2753448308307931     
   6.9799998236703686E-002   1.3983186351682093        5.2741500758470261     
   6.9899998234177474E-002   1.3988459904481989        5.2729555070541361     
   6.9999998231651261E-002   1.3993732262806171        5.2717611244268330     
   7.0099998229125049E-002   1.3999003426840795        5.2705669279398304     
   7.0199998226598836E-002   1.4004273396771985        5.2693729175678445     
   7.0299998224072624E-002   1.4009542172785845        5.2681790932855952     
   7.0399998221546412E-002   1.4014809755068451        5.2669854550678048     
   7.0499998219020199E-002   1.4020076143805855        5.2657920028891994     
   7.0599998216493987E-002   1.4025341339184085        5.2645987367245084     
   7.0699998213967774E-002   1.4030605341389142        5.2634056565484642     
   7.0799998211441562E-002   1.4035868150607000        5.2622127623358024     
   7.0899998208915349E-002   1.4041129767023612        5.2610200540612615     
   7.0999998206389137E-002   1.4046390190824902        5.2598275316995835     
   7.1099998203862924E-002   1.4051649422196770        5.2586351952255139     
   7.1199998201336712E-002   1.4056907461325092        5.2574430446138010     
   7.1299998198810499E-002   1.4062164308395717        5.2562510798391964     
   7.1399998196284287E-002   1.4067419963594472        5.2550593008764546     
   7.1499998193758074E-002   1.4072674427107152        5.2538677077003335     
   7.1599998191231862E-002   1.4077927699119535        5.2526763002855947     
   7.1699998188705649E-002   1.4083179779817367        5.2514850786070024     
   7.1799998186179437E-002   1.4088430669386374        5.2502940426393243     
   7.1899998183653224E-002   1.4093680368012251        5.2491031923573308     
   7.1999998181127012E-002   1.4098928875880674        5.2479125277357950     
   7.2099998178600799E-002   1.4104176193177289        5.2467220487494952     
   7.2199998176074587E-002   1.4109422320087721        5.2455317553732108     
   7.2299998173548374E-002   1.4114667256797564        5.2443416475817255     
   7.2399998171022162E-002   1.4119911003492394        5.2431517253498265     
   7.2499998168495949E-002   1.4125153560357755        5.2419619886523030     
   7.2599998165969737E-002   1.4130394927579168        5.2407724374639484     
   7.2699998163443524E-002   1.4135635105342133        5.2395830717595588     
   7.2799998160917312E-002   1.4140874093832119        5.2383938915139332     
   7.2899998158391099E-002   1.4146111893234574        5.2372048967018747     
   7.2999998155864887E-002   1.4151348503734917        5.2360160872981893     
   7.3099998153338674E-002   1.4156583925518544        5.2348274632776848     
   7.3199998150812462E-002   1.4161818158770827        5.2336390246151741     
   7.3299998148286249E-002   1.4167051203677110        5.2324507712854729     
   7.3399998145760037E-002   1.4172283060422715        5.2312627032633987     
   7.3499998143233825E-002   1.4177513729192934        5.2300748205237735     
   7.3599998140707612E-002   1.4182743210173041        5.2288871230414227     
   7.3699998138181400E-002   1.4187971503548278        5.2276996107911735     
   7.3799998135655187E-002   1.4193198609503865        5.2265122837478577     
   7.3899998133128975E-002   1.4198424528224995        5.2253251418863096     
   7.3999998130602762E-002   1.4203649259896840        5.2241381851813671     
   7.4099998128076550E-002   1.4208872804704542        5.2229514136078707     
   7.4199998125550337E-002   1.4214095162833220        5.2217648271406638     
   7.4299998123024125E-002   1.4219316334467968        5.2205784257545940     
   7.4399998120497912E-002   1.4224536319793855        5.2193922094245115     
   7.4499998117971700E-002   1.4229755118995924        5.2182061781252704     
   7.4599998115445487E-002   1.4234972732259192        5.2170203318317263     
   7.4699998112919275E-002   1.4240189159768655        5.2158346705187402     
   7.4799998110393062E-002   1.4245404401709278        5.2146491941611739     
   7.4899998107866850E-002   1.4250618458266007        5.2134639027338947     
   7.4999998105340637E-002   1.4255831329623756        5.2122787962117716     
   7.5099998102814425E-002   1.4261043015967421        5.2110938745696762     
   7.5199998100288212E-002   1.4266253517481868        5.2099091377824855     
   7.5299998097762000E-002   1.4271462834351940        5.2087245858250784     
   7.5399998095235787E-002   1.4276670966762453        5.2075402186723361     
   7.5499998092709575E-002   1.4281877914898200        5.2063560362991437     
   7.5599998090183362E-002   1.4287083678943948        5.2051720386803906     
   7.5699998087657150E-002   1.4292288259084438        5.2039882257909680     
   7.5799998085130937E-002   1.4297491655504388        5.2028045976057706     
   7.5899998082604725E-002   1.4302693868388490        5.2016211540996959     
   7.5999998080078512E-002   1.4307894897921407        5.2004378952476458     
   7.6099998077552300E-002   1.4313094744287784        5.1992548210245246     
   7.6199998075026087E-002   1.4318293407672238        5.1980719314052397     
   7.6299998072499875E-002   1.4323490888259358        5.1968892263647009     
   7.6399998069973662E-002   1.4328687186233711        5.1957067058778224     
   7.6499998067447450E-002   1.4333882301779837        5.1945243699195220     
   7.6599998064921238E-002   1.4339076235082253        5.1933422184647187     
   7.6699998062395025E-002   1.4344268986325450        5.1921602514883363     
   7.6799998059868813E-002   1.4349460555693896        5.1909784689653016     
   7.6899998057342600E-002   1.4354650943372029        5.1897968708705440     
   7.6999998054816388E-002   1.4359840149544265        5.1886154571789964     
   7.7099998052290175E-002   1.4365028174394996        5.1874342278655945     
   7.7199998049763963E-002   1.4370215018108587        5.1862531829052783     
   7.7299998047237750E-002   1.4375400680869379        5.1850723222729895     
   7.7399998044711538E-002   1.4380585162861685        5.1838916459436737     
   7.7499998042185325E-002   1.4385768464269799        5.1827111538922797     
   7.7599998039659113E-002   1.4390950585277984        5.1815308460937590     
   7.7699998037132900E-002   1.4396131526070481        5.1803507225230669     
   7.7799998034606688E-002   1.4401311286831506        5.1791707831551612     
   7.7899998032080475E-002   1.4406489867745249        5.1779910279650032     
   7.7999998029554263E-002   1.4411667268995874        5.1768114569275578     
   7.8099998027028050E-002   1.4416843490767521        5.1756320700177927     
   7.8199998024501838E-002   1.4422018533244307        5.1744528672106789     
   7.8299998021975625E-002   1.4427192396610322        5.1732738484811902     
   7.8399998019449413E-002   1.4432365081049632        5.1720950138043031     
   7.8499998016923200E-002   1.4437536586746273        5.1709163631549986     
   7.8599998014396988E-002   1.4442706913884265        5.1697378965082601     
   7.8699998011870775E-002   1.4447876062647593        5.1685596138390748     
   7.8799998009344563E-002   1.4453044033220226        5.1673815151224316     
   7.8899998006818350E-002   1.4458210825786104        5.1662036003333238     
   7.8999998004292138E-002   1.4463376440529141        5.1650258694467475     
   7.9099998001765925E-002   1.4468540877633227        5.1638483224377021     
   7.9199997999239713E-002   1.4473704137282226        5.1626709592811899     
   7.9299997996713500E-002   1.4478866219659980        5.1614937799522167     
   7.9399997994187288E-002   1.4484027124950303        5.1603167844257918     
   7.9499997991661076E-002   1.4489186853336984        5.1591399726769263     
   7.9599997989134863E-002   1.4494345405003790        5.1579633446806357     
   7.9699997986608651E-002   1.4499502780134459        5.1567869004119382     
   7.9799997984082438E-002   1.4504658978912708        5.1556106398458557     
   7.9899997981556226E-002   1.4509814001522225        5.1544345629574115     
   7.9999997979030013E-002   1.4514967848146678        5.1532586697216347     
   8.0099997976503801E-002   1.4520120518969706        5.1520829601135558     
   8.0199997973977588E-002   1.4525272014174924        5.1509074341082082     
   8.0299997971451376E-002   1.4530422333945923        5.1497320916806295     
   8.0399997968925163E-002   1.4535571478466267        5.1485569328058602     
   8.0499997966398951E-002   1.4540719447919497        5.1473819574589443     
   8.0599997963872738E-002   1.4545866242489127        5.1462071656149275     
   8.0699997961346526E-002   1.4551011862358649        5.1450325572488600     
   8.0799997958820313E-002   1.4556156307711530        5.1438581323357946     
   8.0899997956294101E-002   1.4561299578731208        5.1426838908507877     
   8.0999997953767888E-002   1.4566441675601098        5.1415098327688993     
   8.1099997951241676E-002   1.4571582598504593        5.1403359580651911     
   8.1199997948715463E-002   1.4576722347625057        5.1391622667147283     
   8.1299997946189251E-002   1.4581860923145833        5.1379887586925808     
   8.1399997943663038E-002   1.4586998325250233        5.1368154339738190     
   8.1499997941136826E-002   1.4592134554121552        5.1356422925335190     
   8.1599997938610613E-002   1.4597269609943053        5.1344693343467593     
   8.1699997936084401E-002   1.4602403492897980        5.1332965593886204     
   8.1799997933558188E-002   1.4607536203169547        5.1321239676341870     
   8.1899997931031976E-002   1.4612667740940946        5.1309515590585475     
   8.1999997928505763E-002   1.4617798106395341        5.1297793336367921     
   8.2099997925979551E-002   1.4622927299715878        5.1286072913440144     
   8.2199997923453338E-002   1.4628055321085669        5.1274354321553126     
   8.2299997920927126E-002   1.4633182170687808        5.1262637560457858     
   8.2399997918400913E-002   1.4638307848705363        5.1250922629905382     
   8.2499997915874701E-002   1.4643432355321373        5.1239209529646761     
   8.2599997913348489E-002   1.4648555690718856        5.1227498259433091     
   8.2699997910822276E-002   1.4653677855080804        5.1215788819015504     
   8.2799997908296064E-002   1.4658798848590184        5.1204081208145160     
   8.2899997905769851E-002   1.4663918671429939        5.1192375426573244     
   8.2999997903243639E-002   1.4669037323782985        5.1180671474050987     
   8.3099997900717426E-002   1.4674154805832218        5.1168969350329636     
   8.3199997898191214E-002   1.4679271117760502        5.1157269055160484     
   8.3299997895665001E-002   1.4684386259750681        5.1145570588294840     
   8.3399997893138789E-002   1.4689500231985573        5.1133873949484059     
   8.3499997890612576E-002   1.4694613034647970        5.1122179138479522     
   8.3599997888086364E-002   1.4699724667920642        5.1110486155032637     
   8.3699997885560151E-002   1.4704835131986331        5.1098794998894856     
   8.3799997883033939E-002   1.4709944427027757        5.1087105669817641     
   8.3899997880507726E-002   1.4715052553227612        5.1075418167552504     
   8.3999997877981514E-002   1.4720159510768567        5.1063732491850988     
   8.4099997875455301E-002   1.4725265299833263        5.1052048642464651     
   8.4199997872929089E-002   1.4730369920604320        5.1040366619145097     
   8.4299997870402876E-002   1.4735473373264334        5.1028686421643963     
   8.4399997867876664E-002   1.4740575657995874        5.1017008049712906     
   8.4499997865350451E-002   1.4745676774981482        5.1005331503103628     
   8.4599997862824239E-002   1.4750776724403680        5.0993656781567847     
   8.4699997860298026E-002   1.4755875506444962        5.0981983884857325     
   8.4799997857771814E-002   1.4760973121287799        5.0970312812723844     
   8.4899997855245601E-002   1.4766069569114635        5.0958643564919228     
   8.4999997852719389E-002   1.4771164850107892        5.0946976141195330     
   8.5099997850193176E-002   1.4776258964449964        5.0935310541304037     
   8.5199997847666964E-002   1.4781351912323224        5.0923646764997255     
   8.5299997845140751E-002   1.4786443693910016        5.0911984812026931     
   8.5399997842614539E-002   1.4791534309392664        5.0900324682145053     
   8.5499997840088326E-002   1.4796623758953462        5.0888666375103613     
   8.5599997837562114E-002   1.4801712042774682        5.0877009890654659     
   8.5699997835035902E-002   1.4806799161038571        5.0865355228550264     
   8.5799997832509689E-002   1.4811885113927350        5.0853702388542530     
   8.5899997829983477E-002   1.4816969901623218        5.0842051370383592     
   8.5999997827457264E-002   1.4822053524308347        5.0830402173825604     
   8.6099997824931052E-002   1.4827135982164885        5.0818754798620773     
   8.6199997822404839E-002   1.4832217275374955        5.0807109244521325     
   8.6299997819878627E-002   1.4837297404120655        5.0795465511279518     
   8.6399997817352414E-002   1.4842376368584058        5.0783823598647650     
   8.6499997814826202E-002   1.4847454168947212        5.0772183506378035     
   8.6599997812299989E-002   1.4852530805392141        5.0760545234223029     
   8.6699997809773777E-002   1.4857606278100846        5.0748908781935009     
   8.6799997807247564E-002   1.4862680587255299        5.0737274149266396     
   8.6899997804721352E-002   1.4867753733037452        5.0725641335969645     
   8.6999997802195139E-002   1.4872825715629228        5.0714010341797229     
   8.7099997799668927E-002   1.4877896535212527        5.0702381166501649     
   8.7199997797142714E-002   1.4882966191969225        5.0690753809835458     
   8.7299997794616502E-002   1.4888034686081171        5.0679128271551228     
   8.7399997792090289E-002   1.4893102017730193        5.0667504551401557     
   8.7499997789564077E-002   1.4898168187098091        5.0655882649139077     
   8.7599997787037864E-002   1.4903233194366641        5.0644262564516458     
   8.7699997784511652E-002   1.4908297039717595        5.0632644297286404     
   8.7799997781985439E-002   1.4913359723332680        5.0621027847201638     
   8.7899997779459227E-002   1.4918421245393598        5.0609413214014918     
   8.7999997776933014E-002   1.4923481606082027        5.0597800397479045     
   8.8099997774406802E-002   1.4928540805579620        5.0586189397346830     
   8.8199997771880589E-002   1.4933598844068003        5.0574580213371130     
   8.8299997769354377E-002   1.4938655721728782        5.0562972845304834     
   8.8399997766828164E-002   1.4943711438743534        5.0551367292900862     
   8.8499997764301952E-002   1.4948765995293813        5.0539763555912156     
   8.8599997761775739E-002   1.4953819391561149        5.0528161634091697     
   8.8699997759249527E-002   1.4958871627727046        5.0516561527192492     
   8.8799997756723315E-002   1.4963922703972983        5.0504963234967581     
   8.8899997754197102E-002   1.4968972620480416        5.0493366757170044     
   8.8999997751670890E-002   1.4974021377430775        5.0481772093552983     
   8.9099997749144677E-002   1.4979068975005465        5.0470179243869531     
   8.9199997746618465E-002   1.4984115413385868        5.0458588207872852     
   8.9299997744092252E-002   1.4989160692753341        5.0446998985316149     
   8.9399997741566040E-002   1.4994204813289214        5.0435411575952642     
   8.9499997739039827E-002   1.4999247775174795        5.0423825979535604     
   8.9599997736513615E-002   1.5004289578591365        5.0412242195818315     
   8.9699997733987402E-002   1.5009330223720183        5.0400660224554104     
   8.9799997731461190E-002   1.5014369710742483        5.0389080065496321     
   8.9899997728934977E-002   1.5019408039839472        5.0377501718398356     
   8.9999997726408765E-002   1.5024445211192334        5.0365925183013625     
   9.0099997723882552E-002   1.5029481224982226        5.0354350459095567     
   9.0199997721356340E-002   1.5034516081390286        5.0342777546397670     
   9.0299997718830127E-002   1.5039549780597621        5.0331206444673438     
   9.0399997716303915E-002   1.5044582322785316        5.0319637153676418     
   9.0499997713777702E-002   1.5049613708134433        5.0308069673160176     
   9.0599997711251490E-002   1.5054643936826007        5.0296504002878315     
   9.0699997708725277E-002   1.5059673009041048        5.0284940142584471     
   9.0799997706199065E-002   1.5064700924960543        5.0273378092032317     
   9.0899997703672852E-002   1.5069727684765455        5.0261817850975543     
   9.0999997701146640E-002   1.5074753288636720        5.0250259419167875     
   9.1099997698620427E-002   1.5079777736755251        5.0238702796363075     
   9.1199997696094215E-002   1.5084801029301937        5.0227147982314930     
   9.1299997693568002E-002   1.5089823166457641        5.0215594976777265     
   9.1399997691041790E-002   1.5094844148403201        5.0204043779503928     
   9.1499997688515577E-002   1.5099863975319432        5.0192494390248807     
   9.1599997685989365E-002   1.5104882647387121        5.0180946808765823     
   9.1699997683463152E-002   1.5109900164787036        5.0169401034808914     
   9.1799997680936940E-002   1.5114916527699915        5.0157857068132055     
   9.1899997678410728E-002   1.5119931736306476        5.0146314908489256     
   9.1999997675884515E-002   1.5124945790787407        5.0134774555634563     
   9.2099997673358303E-002   1.5129958691323377        5.0123236009322039     
   9.2199997670832090E-002   1.5134970438095028        5.0111699269305792     
   9.2299997668305878E-002   1.5139981031282976        5.0100164335339947     
   9.2399997665779665E-002   1.5144990471067816        5.0088631207178675     
   9.2499997663253453E-002   1.5149998757630114        5.0077099884576164     
   9.2599997660727240E-002   1.5155005891150415        5.0065570367286645     
   9.2699997658201028E-002   1.5160011871809236        5.0054042655064377     
   9.2799997655674815E-002   1.5165016699787073        5.0042516747663637     
   9.2899997653148603E-002   1.5170020375264395        5.0030992644838754     
   9.2999997650622390E-002   1.5175022898421648        5.0019470346344077     
   9.3099997648096178E-002   1.5180024269439254        5.0007949851933988     
   9.3199997645569965E-002   1.5185024488497607        4.9996431161362898     
   9.3299997643043753E-002   1.5190023555777079        4.9984914274385250     
   9.3399997640517540E-002   1.5195021471458019        4.9973399190755527     
   9.3499997637991328E-002   1.5200018235720747        4.9961885910228228     
   9.3599997635465115E-002   1.5205013848745561        4.9950374432557885     
   9.3699997632938903E-002   1.5210008310712737        4.9938864757499077     
   9.3799997630412690E-002   1.5215001621802522        4.9927356884806393     
   9.3899997627886478E-002   1.5219993782195140        4.9915850814234464     
   9.3999997625360265E-002   1.5224984792070793        4.9904346545537956     
   9.4099997622834053E-002   1.5229974651609652        4.9892844078471557     
   9.4199997620307840E-002   1.5234963360991871        4.9881343412789994     
   9.4299997617781628E-002   1.5239950920397576        4.9869844548248023     
   9.4399997615255415E-002   1.5244937330006869        4.9858347484600420     
   9.4499997612729203E-002   1.5249922589999827        4.9846852221602012     
   9.4599997610202990E-002   1.5254906700556501        4.9835358759007642     
   9.4699997607676778E-002   1.5259889661856920        4.9823867096572183     
   9.4799997605150566E-002   1.5264871474081088        4.9812377234050551     
   9.4899997602624353E-002   1.5269852137408984        4.9800889171197689     
   9.4999997600098141E-002   1.5274831652020562        4.9789402907768556     
   9.5099997597571928E-002   1.5279810018095754        4.9777918443518168     
   9.5199997595045716E-002   1.5284787235814465        4.9766435778201554     
   9.5299997592519503E-002   1.5289763305356576        4.9754954911573774     
   9.5399997589993291E-002   1.5294738226901943        4.9743475843389930     
   9.5499997587467078E-002   1.5299712000630397        4.9731998573405143     
   9.5599997584940866E-002   1.5304684626721747        4.9720523101374567     
   9.5699997582414653E-002   1.5309656105355778        4.9709049427053396     
   9.5799997579888441E-002   1.5314626436712246        4.9697577550196854     
   9.5899997577362228E-002   1.5319595620970887        4.9686107470560188     
   9.5999997574836016E-002   1.5324563658311410        4.9674639187898677     
   9.6099997572309803E-002   1.5329530548913499        4.9663172701967628     
   9.6199997569783591E-002   1.5334496292956816        4.9651708012522393     
   9.6299997567257378E-002   1.5339460890620997        4.9640245119318340     
   9.6399997564731166E-002   1.5344424342085656        4.9628784022110883     
   9.6499997562204953E-002   1.5349386647530379        4.9617324720655454     
   9.6599997559678741E-002   1.5354347807134727        4.9605867214707517     
   9.6699997557152528E-002   1.5359307821078241        4.9594411504022569     
   9.6799997554626316E-002   1.5364266689540433        4.9582957588356136     
   9.6899997552100103E-002   1.5369224412700795        4.9571505467463783     
   9.6999997549573891E-002   1.5374180990738791        4.9560055141101103     
   9.7099997547047678E-002   1.5379136423833861        4.9548606609023720     
   9.7199997544521466E-002   1.5384090712165424        4.9537159870987280     
   9.7299997541995253E-002   1.5389043855912867        4.9525714926747471     
   9.7399997539469041E-002   1.5393995855255562        4.9514271776060008     
   9.7499997536942828E-002   1.5398946710372852        4.9502830418680634     
   9.7599997534416616E-002   1.5403896421444052        4.9491390854365127     
   9.7699997531890403E-002   1.5408844988648460        4.9479953082869290     
   9.7799997529364191E-002   1.5413792412165344        4.9468517103948964     
   9.7899997526837979E-002   1.5418738692173948        4.9457082917360013     
   9.7999997524311766E-002   1.5423683828853494        4.9445650522858351     
   9.8099997521785554E-002   1.5428627822383179        4.9434219920199896     
   9.8199997519259341E-002   1.5433570672942176        4.9422791109140611     
   9.8299997516733129E-002   1.5438512380709632        4.9411364089436498     
   9.8399997514206916E-002   1.5443452945864671        4.9399938860843573     
   9.8499997511680704E-002   1.5448392368586390        4.9388515423117889     
   9.8599997509154491E-002   1.5453330649053865        4.9377093776015535     
   9.8699997506628279E-002   1.5458267787446145        4.9365673919292625     
   9.8799997504102066E-002   1.5463203783942256        4.9354255852705311     
   9.8899997501575854E-002   1.5468138638721201        4.9342839576009760     
   9.8999997499049641E-002   1.5473072351961954        4.9331425088962195     
   9.9099997496523429E-002   1.5478004923843469        4.9320012391318846     
   9.9199997493997216E-002   1.5482936354544674        4.9308601482835988     
   9.9299997491471004E-002   1.5487866644244475        4.9297192363269913     
   9.9399997488944791E-002   1.5492795793121750        4.9285785032376968     
   9.9499997486418579E-002   1.5497723801355352        4.9274379489913507     
   9.9599997483892366E-002   1.5502650669124114        4.9262975735635921     
   9.9699997481366154E-002   1.5507576396606844        4.9251573769300645     
   9.9799997478839941E-002   1.5512500983982320        4.9240173590664122     
   9.9899997476313729E-002   1.5517424431429303        4.9228775199482850     
   9.9999997473787516E-002   1.5522346739126525        4.9217378595513344     
  0.10009999747126130        1.5527267907252695        4.9205983778512143     
  0.10019999746873509        1.5532187935986499        4.9194590748235836     
  0.10029999746620888        1.5537106825506597        4.9183199504441024     
  0.10039999746368267        1.5542024575991624        4.9171810046884357     
  0.10049999746115645        1.5546941187620191        4.9160422375322499     
  0.10059999745863024        1.5551856660570886        4.9149036489512161     
  0.10069999745610403        1.5556770995022273        4.9137652389210063     
  0.10079999745357782        1.5561684191152889        4.9126270074172975     
  0.10089999745105160        1.5566596249141251        4.9114889544157698     
  0.10099999744852539        1.5571507169165846        4.9103510798921048     
  0.10109999744599918        1.5576416951405141        4.9092133838219887     
  0.10119999744347297        1.5581325596037578        4.9080758661811092     
  0.10129999744094675        1.5586233103241574        4.9069385269451589     
  0.10139999743842054        1.5591139473195519        4.9058013660898325     
  0.10149999743589433        1.5596044706077785        4.9046643835908279     
  0.10159999743336812        1.5600948802066714        4.9035275794238462     
  0.10169999743084190        1.5605851761340628        4.9023909535645913     
  0.10179999742831569        1.5610753584077821        4.9012545059887707     
  0.10189999742578948        1.5615654270456565        4.9001182366720943     
  0.10199999742326327        1.5620553820655105        4.8989821455902751     
  0.10209999742073705        1.5625452234851667        4.8978462327190302     
  0.10219999741821084        1.5630349513224446        4.8967104980340785     
  0.10229999741568463        1.5635245655951620        4.8955749415111427     
  0.10239999741315842        1.5640140663211335        4.8944395631259479     
  0.10249999741063220        1.5645034535181719        4.8933043628542237     
  0.10259999740810599        1.5649927272040873        4.8921693406717015     
  0.10269999740557978        1.5654818873966874        4.8910344965541155     
  0.10279999740305357        1.5659709341137775        4.8898998304772041     
  0.10289999740052735        1.5664598673731605        4.8887653424167086     
  0.10299999739800114        1.5669486871926366        4.8876310323483718     
  0.10309999739547493        1.5674373935900039        4.8864969002479421     
  0.10319999739294872        1.5679259865830582        4.8853629460911687     
  0.10329999739042250        1.5684144661895922        4.8842291698538061     
  0.10339999738789629        1.5689028324273970        4.8830955715116096     
  0.10349999738537008        1.5693910853142610        4.8819621510403381     
  0.10359999738284387        1.5698792248679698        4.8808289084157552     
  0.10369999738031765        1.5703672511063069        4.8796958436136260     
  0.10379999737779144        1.5708551640470534        4.8785629566097191     
  0.10389999737526523        1.5713429637079879        4.8774302473798059     
  0.10399999737273902        1.5718306501068866        4.8762977158996614     
  0.10409999737021280        1.5723182232615234        4.8751653621450632     
  0.10419999736768659        1.5728056831896693        4.8740331860917925     
  0.10429999736516038        1.5732930299090935        4.8729011877156321     
  0.10439999736263417        1.5737802634375624        4.8717693669923703     
  0.10449999736010795        1.5742673837928400        4.8706377238977963     
  0.10459999735758174        1.5747543909926882        4.8695062584077036     
  0.10469999735505553        1.5752412850548660        4.8683749704978885     
  0.10479999735252932        1.5757280659971304        4.8672438601441499     
  0.10489999735000310        1.5762147338372356        4.8661129273222903     
  0.10499999734747689        1.5767012885929337        4.8649821720081148     
  0.10509999734495068        1.5771877302819743        4.8638515941774321     
  0.10519999734242447        1.5776740589221045        4.8627211938060544     
  0.10529999733989825        1.5781602745310690        4.8615909708697949     
  0.10539999733737204        1.5786463771266102        4.8604609253444719     
  0.10549999733484583        1.5791323667264676        4.8593310572059067     
  0.10559999733231962        1.5796182433483792        4.8582013664299222     
  0.10569999732979340        1.5801040070100798        4.8570718529923456     
  0.10579999732726719        1.5805896577293019        4.8559425168690060     
  0.10589999732474098        1.5810751955237761        4.8548133580357371     
  0.10599999732221477        1.5815606204112298        4.8536843764683750     
  0.10609999731968855        1.5820459324093885        4.8525555721427587     
  0.10619999731716234        1.5825311315359754        4.8514269450347296     
  0.10629999731463613        1.5830162178087106        4.8502984951201338     
  0.10639999731210992        1.5835011912453125        4.8491702223748190     
  0.10649999730958370        1.5839860518634969        4.8480421267746365     
  0.10659999730705749        1.5844707996809770        4.8469142082954404     
  0.10669999730453128        1.5849554347154637        4.8457864669130881     
  0.10679999730200507        1.5854399569846656        4.8446589026034408     
  0.10689999729947885        1.5859243665062885        4.8435315153423613     
  0.10699999729695264        1.5864086632980363        4.8424043051057168     
  0.10709999729442643        1.5868928473776100        4.8412772718693766     
  0.10719999729190022        1.5873769187627087        4.8401504156092132     
  0.10729999728937401        1.5878608774710286        4.8390237363011028     
  0.10739999728684779        1.5883447235202639        4.8378972339209234     
  0.10749999728432158        1.5888284569281059        4.8367709084445574     
  0.10759999728179537        1.5893120777122440        4.8356447598478898     
  0.10769999727926916        1.5897955858903650        4.8345187881068084     
  0.10779999727674294        1.5902789814801530        4.8333929931972044     
  0.10789999727421673        1.5907622644992903        4.8322673750949718     
  0.10799999727169052        1.5912454349654561        4.8311419337760073     
  0.10809999726916431        1.5917284928963278        4.8300166692162119     
  0.10819999726663809        1.5922114383095798        4.8288915813914874     
  0.10829999726411188        1.5926942712228846        4.8277666702777413     
  0.10839999726158567        1.5931769916539120        4.8266419358508825     
  0.10849999725905946        1.5936595996203295        4.8255173780868237     
  0.10859999725653324        1.5941420951398024        4.8243929969614801     
  0.10869999725400703        1.5946244782299932        4.8232687924507704     
  0.10879999725148082        1.5951067489085620        4.8221447645306155     
  0.10889999724895461        1.5955889071931668        4.8210209131769401     
  0.10899999724642839        1.5960709531014632        4.8198972383656722     
  0.10909999724390218        1.5965528866511041        4.8187737400727428     
  0.10919999724137597        1.5970347078597400        4.8176504182740851     
  0.10929999723884976        1.5975164167450193        4.8165272729456357     
  0.10939999723632354        1.5979980133245877        4.8154043040633345     
  0.10949999723379733        1.5984794976160885        4.8142815116031255     
  0.10959999723127112        1.5989608696371631        4.8131588955409530     
  0.10969999722874491        1.5994421294054497        4.8120364558527671     
  0.10979999722621869        1.5999232769385847        4.8109141925145193     
  0.10989999722369248        1.6004043122542020        4.8097921055021642     
  0.10999999722116627        1.6008852353699328        4.8086701947916604     
  0.11009999721864006        1.6013660463034061        4.8075484603589693     
  0.11019999721611384        1.6018467450722484        4.8064269021800543     
  0.11029999721358763        1.6023273316940840        4.8053055202308839     
  0.11039999721106142        1.6028078061865347        4.8041843144874274     
  0.11049999720853521        1.6032881685672200        4.8030632849256580     
  0.11059999720600899        1.6037684188537566        4.8019424315215522     
  0.11069999720348278        1.6042485570637592        4.8008217542510900     
  0.11079999720095657        1.6047285832148399        4.7997012530902534     
  0.11089999719843036        1.6052084973246086        4.7985809280150278     
  0.11099999719590414        1.6056882994106725        4.7974607790014021     
  0.11109999719337793        1.6061679894906364        4.7963408060253672     
  0.11119999719085172        1.6066475675821033        4.7952210090629181     
  0.11129999718832551        1.6071270337026731        4.7941013880900529     
  0.11139999718579929        1.6076063878699434        4.7929819430827711     
  0.11149999718327308        1.6080856301015098        4.7918626740170778     
  0.11159999718074687        1.6085647604149653        4.7907435808689787     
  0.11169999717822066        1.6090437788279004        4.7896246636144841     
  0.11179999717569444        1.6095226853579032        4.7885059222296071     
  0.11189999717316823        1.6100014800225595        4.7873873566903633     
  0.11199999717064202        1.6104801628394525        4.7862689669727718     
  0.11209999716811581        1.6109587338261633        4.7851507530528545     
  0.11219999716558959        1.6114371930002704        4.7840327149066360     
  0.11229999716306338        1.6119155403793504        4.7829148525101450     
  0.11239999716053717        1.6123937759809766        4.7817971658394125     
  0.11249999715801096        1.6128718998227205        4.7806796548704718     
  0.11259999715548474        1.6133499119221510        4.7795623195793606     
  0.11269999715295853        1.6138278122968348        4.7784451599421196     
  0.11279999715043232        1.6143056009643362        4.7773281759347910     
  0.11289999714790611        1.6147832779422167        4.7762113675334215     
  0.11299999714537989        1.6152608432480358        4.7750947347140604     
  0.11309999714285368        1.6157382968993506        4.7739782774527599     
  0.11319999714032747        1.6162156389137157        4.7728619957255756     
  0.11329999713780126        1.6166928693086833        4.7717458895085656     
  0.11339999713527504        1.6171699881018031        4.7706299587777918     
  0.11349999713274883        1.6176469953106227        4.7695142035093188     
  0.11359999713022262        1.6181238909526872        4.7683986236792135     
  0.11369999712769641        1.6186006750455391        4.7672832192635468     
  0.11379999712517019        1.6190773476067186        4.7661679902383920     
  0.11389999712264398        1.6195539086537636        4.7650529365798251     
  0.11399999712011777        1.6200303582042095        4.7639380582639266     
  0.11409999711759156        1.6205066962755894        4.7628233552667787     
  0.11419999711506534        1.6209829228854340        4.7617088275644672     
  0.11429999711253913        1.6214590380512717        4.7605944751330806     
  0.11439999711001292        1.6219350417906282        4.7594802979487110     
  0.11449999710748671        1.6224109341210273        4.7583662959874529     
  0.11459999710496049        1.6228867150599899        4.7572524692254046     
  0.11469999710243428        1.6233623846250347        4.7561388176386661     
  0.11479999709990807        1.6238379428336780        4.7550253412033419     
  0.11489999709738186        1.6243133897034339        4.7539120398955390     
  0.11499999709485564        1.6247887252518138        4.7527989136913664     
  0.11509999709232943        1.6252639494963270        4.7516859625669383     
  0.11519999708980322        1.6257390624544803        4.7505731864983698     
  0.11529999708727701        1.6262140641437781        4.7494605854617795     
  0.11539999708475079        1.6266889545817222        4.7483481594332897     
  0.11549999708222458        1.6271637337858125        4.7472359083890261     
  0.11559999707969837        1.6276384017735461        4.7461238323051163     
  0.11569999707717216        1.6281129585624179        4.7450119311576913     
  0.11579999707464594        1.6285874041699202        4.7439002049228849     
  0.11589999707211973        1.6290617386135431        4.7427886535768344     
  0.11599999706959352        1.6295359619107743        4.7416772770956808     
  0.11609999706706731        1.6300100740790993        4.7405660754555665     
  0.11619999706454109        1.6304840751360006        4.7394550486326379     
  0.11629999706201488        1.6309579650989590        4.7383441966030437     
  0.11639999705948867        1.6314317439854527        4.7372335193429365     
  0.11649999705696246        1.6319054118129572        4.7361230168284720     
  0.11659999705443624        1.6323789685989463        4.7350126890358082     
  0.11669999705191003        1.6328524143608907        4.7339025359411062     
  0.11679999704938382        1.6333257491162589        4.7327925575205301     
  0.11689999704685761        1.6337989728825173        4.7316827537502473     
  0.11699999704433139        1.6342720856771298        4.7305731246064289     
  0.11709999704180518        1.6347450875175575        4.7294636700652477     
  0.11719999703927897        1.6352179784212599        4.7283543901028802     
  0.11729999703675276        1.6356907584056934        4.7272452846955053     
  0.11739999703422654        1.6361634274883126        4.7261363538193066     
  0.11749999703170033        1.6366359856865691        4.7250275974504685     
  0.11759999702917412        1.6371084330179126        4.7239190155651798     
  0.11769999702664791        1.6375807694997904        4.7228106081396319     
  0.11779999702412169        1.6380529951496470        4.7217023751500200     
  0.11789999702159548        1.6385251099849250        4.7205943165725408     
  0.11799999701906927        1.6389971140230644        4.7194864323833956     
  0.11809999701654306        1.6394690072815026        4.7183787225587874     
  0.11819999701401684        1.6399407897776752        4.7172711870749229     
  0.11829999701149063        1.6404124615290150        4.7161638259080112     
  0.11839999700896442        1.6408840225529524        4.7150566390342652     
  0.11849999700643821        1.6413554728669155        4.7139496264299012     
  0.11859999700391199        1.6418268124883302        4.7128427880711374     
  0.11869999700138578        1.6422980414346198        4.7117361239341946     
  0.11879999699885957        1.6427691597232053        4.7106296339952989     
  0.11889999699633336        1.6432401673715054        4.7095233182306773     
  0.11899999699380714        1.6437110643969362        4.7084171766165603     
  0.11909999699128093        1.6441818508169115        4.7073112091291813     
  0.11919999698875472        1.6446525266488430        4.7062054157447779     
  0.11929999698622851        1.6451230919101398        4.7050997964395886     
  0.11939999698370229        1.6455935466182086        4.7039943511898574     
  0.11949999698117608        1.6460638907904537        4.7028890799718290     
  0.11959999697864987        1.6465341244442770        4.7017839827617527     
  0.11969999697612366        1.6470042475970783        4.7006790595358803     
  0.11979999697359744        1.6474742602662547        4.6995743102704663     
  0.11989999697107123        1.6479441624692011        4.6984697349417690     
  0.11999999696854502        1.6484139542233098        4.6973653335260490     
  0.12009999696601881        1.6488836355459713        4.6962611059995698     
  0.12019999696349259        1.6493532064545731        4.6951570523385984     
  0.12029999696096638        1.6498226669665004        4.6940531725194043     
  0.12039999695844017        1.6502920170991364        4.6929494665182609     
  0.12049999695591396        1.6507612568698617        4.6918459343114431     
  0.12059999695338774        1.6512303862960547        4.6907425758752304     
  0.12069999695086153        1.6516994053950911        4.6896393911859047     
  0.12079999694833532        1.6521683141843444        4.6885363802197508     
  0.12089999694580911        1.6526371126811856        4.6874335429530563     
  0.12099999694328289        1.6531058009029838        4.6863308793621119     
  0.12109999694075668        1.6535743788671051        4.6852283894232123     
  0.12119999693823047        1.6540428465909136        4.6841260731126537     
  0.12129999693570426        1.6545112040917711        4.6830239304067360     
  0.12139999693317804        1.6549794513870366        4.6819219612817617     
  0.12149999693065183        1.6554475884940674        4.6808201657140378     
  0.12159999692812562        1.6559156154302177        4.6797185436798721     
  0.12169999692559941        1.6563835322128397        4.6786170951555768     
  0.12179999692307319        1.6568513388592834        4.6775158201174669     
  0.12189999692054698        1.6573190353868961        4.6764147185418601     
  0.12199999691802077        1.6577866218130228        4.6753137904050774     
  0.12209999691549456        1.6582540981550062        4.6742130356834428     
  0.12219999691296834        1.6587214644301869        4.6731124543532827     
  0.12229999691044213        1.6591887206559026        4.6720120463909272     
  0.12239999690791592        1.6596558668494890        4.6709118117727098     
  0.12249999690538971        1.6601229030282791        4.6698117504749659     
  0.12259999690286350        1.6605898292096042        4.6687118624740345     
  0.12269999690033728        1.6610566454107925        4.6676121477462571     
  0.12279999689781107        1.6615233516491701        4.6665126062679789     
  0.12289999689528486        1.6619899479420608        4.6654132380155477     
  0.12299999689275865        1.6624564343067862        4.6643140429653149     
  0.12309999689023243        1.6629228107606653        4.6632150210936336     
  0.12319999688770622        1.6633890773210145        4.6621161723768605     
  0.12329999688518001        1.6638552340051482        4.6610174967913567     
  0.12339999688265380        1.6643212808303787        4.6599189943134842     
  0.12349999688012758        1.6647872178140151        4.6588206649196087     
  0.12359999687760137        1.6652530449733649        4.6577225085860992     
  0.12369999687507516        1.6657187623257328        4.6566245252893275     
  0.12379999687254895        1.6661843698884216        4.6555267150056689     
  0.12389999687002273        1.6666498676787309        4.6544290777115007     
  0.12399999686749652        1.6671152557139590        4.6533316133832043     
  0.12409999686497031        1.6675805340114009        4.6522343219971631     
  0.12419999686244410        1.6680457025883499        4.6511372035297640     
  0.12429999685991788        1.6685107614620966        4.6500402579573974     
  0.12439999685739167        1.6689757106499294        4.6489434852564555     
  0.12449999685486546        1.6694405501691343        4.6478468854033341     
  0.12459999685233925        1.6699052800369947        4.6467504583744317     
  0.12469999684981303        1.6703699002707919        4.6456542041461510     
  0.12479999684728682        1.6708344108878048        4.6445581226948960     
  0.12489999684476061        1.6712988119053100        4.6434622139970747     
  0.12499999684223440        1.6717631033405815        4.6423664780290981     
  0.12509999683970818        1.6722272852108913        4.6412709147673796     
  0.12519999683718197        1.6726913575335087        4.6401755241883356     
  0.12529999683465576        1.6731553203257010        4.6390803062683865     
  0.12539999683212955        1.6736191736047328        4.6379852609839549     
  0.12549999682960333        1.6740829173878664        4.6368903883114667     
  0.12559999682707712        1.6745465516923619        4.6357956882273506     
  0.12569999682455091        1.6750100765354767        4.6347011607080377     
  0.12579999682202470        1.6754734919344665        4.6336068057299631     
  0.12589999681949848        1.6759367979065840        4.6325126232695641     
  0.12599999681697227        1.6763999944690799        4.6314186133032811     
  0.12609999681444606        1.6768630816392025        4.6303247758075585     
  0.12619999681191985        1.6773260594341974        4.6292311107588429     
  0.12629999680939363        1.6777889278713085        4.6281376181335832     
  0.12639999680686742        1.6782516869677766        4.6270442979082329     
  0.12649999680434121        1.6787143367408408        4.6259511500592465     
  0.12659999680181500        1.6791768772077373        4.6248581745630837     
  0.12669999679928878        1.6796393083857004        4.6237653713962050     
  0.12679999679676257        1.6801016302919618        4.6226727405350756     
  0.12689999679423636        1.6805638429437508        4.6215802819561631     
  0.12699999679171015        1.6810259463582946        4.6204879956359379     
  0.12709999678918393        1.6814879405528180        4.6193958815508731     
  0.12719999678665772        1.6819498255445431        4.6183039396774452     
  0.12729999678413151        1.6824116013506900        4.6172121699921336     
  0.12739999678160530        1.6828732679884764        4.6161205724714209     
  0.12749999677907908        1.6833348254751173        4.6150291470917928     
  0.12759999677655287        1.6837962738278258        4.6139378938297373     
  0.12769999677402666        1.6842576130638125        4.6128468126617461     
  0.12779999677150045        1.6847188432002858        4.6117559035643136     
  0.12789999676897423        1.6851799642544512        4.6106651665139369     
  0.12799999676644802        1.6856409762435125        4.6095746014871164     
  0.12809999676392181        1.6861018791846709        4.6084842084603546     
  0.12819999676139560        1.6865626730951251        4.6073939874101590     
  0.12829999675886938        1.6870233579920717        4.6063039383130384     
  0.12839999675634317        1.6874839338927048        4.6052140611455048     
  0.12849999675381696        1.6879444008142162        4.6041243558840730     
  0.12859999675129075        1.6884047587737951        4.6030348225052622     
  0.12869999674876453        1.6888650077886289        4.6019454609855925     
  0.12879999674623832        1.6893251478759022        4.6008562713015886     
  0.12889999674371211        1.6897851790527973        4.5997672534297775     
  0.12899999674118590        1.6902451013364945        4.5986784073466902     
  0.12909999673865968        1.6907049147441713        4.5975897330288582     
  0.12919999673613347        1.6911646192930030        4.5965012304528186     
  0.12929999673360726        1.6916242150001628        4.5954128995951100     
  0.12939999673108105        1.6920837018828212        4.5943247404322749     
  0.12949999672855483        1.6925430799581467        4.5932367529408573     
  0.12959999672602862        1.6930023492433051        4.5921489370974058     
  0.12969999672350241        1.6934615097554599        4.5910612928784715     
  0.12979999672097620        1.6939205615117727        4.5899738202606084     
  0.12989999671844998        1.6943795045294023        4.5888865192203721     
  0.12999999671592377        1.6948383388255053        4.5877993897343234     
  0.13009999671339756        1.6952970644172360        4.5867124317790253     
  0.13019999671087135        1.6957556813217463        4.5856256453310431     
  0.13029999670834513        1.6962141895561855        4.5845390303669458     
  0.13039999670581892        1.6966725891377012        4.5834525868633049     
  0.13049999670329271        1.6971308800834382        4.5823663147966949     
  0.13059999670076650        1.6975890624105388        4.5812802141436944     
  0.13069999669824028        1.6980471361361431        4.5801942848808830     
  0.13079999669571407        1.6985051012773893        4.5791085269848448     
  0.13089999669318786        1.6989629578514127        4.5780229404321666     
  0.13099999669066165        1.6994207058753465        4.5769375251994369     
  0.13109999668813543        1.6998783453663218        4.5758522812632494     
  0.13119999668560922        1.7003358763414667        4.5747672086001989     
  0.13129999668308301        1.7007932988179075        4.5736823071868837     
  0.13139999668055680        1.7012506128127680        4.5725975769999057     
  0.13149999667803058        1.7017078183431695        4.5715130180158692     
  0.13159999667550437        1.7021649154262315        4.5704286302113815     
  0.13169999667297816        1.7026219040790704        4.5693444135630523     
  0.13179999667045195        1.7030787843188009        4.5682603680474960     
  0.13189999666792573        1.7035355561625349        4.5671764936413277     
  0.13199999666539952        1.7039922196273825        4.5660927903211670     
  0.13209999666287331        1.7044487747304506        4.5650092580636361     
  0.13219999666034710        1.7049052214888449        4.5639258968453609     
  0.13229999665782088        1.7053615599196679        4.5628427066429689     
  0.13239999665529467        1.7058177900400198        4.5617596874330903     
  0.13249999665276846        1.7062739118669989        4.5606768391923609     
  0.13259999665024225        1.7067299254177011        4.5595941618974161     
  0.13269999664771603        1.7071858307092194        4.5585116555248968     
  0.13279999664518982        1.7076416277586450        4.5574293200514457     
  0.13289999664266361        1.7080973165830668        4.5563471554537083     
  0.13299999664013740        1.7085528971995714        4.5552651617083333     
  0.13309999663761118        1.7090083696252425        4.5541833387919732     
  0.13319999663508497        1.7094637338771619        4.5531016866812823     
  0.13329999663255876        1.7099189899724090        4.5520202053529184     
  0.13339999663003255        1.7103741379280610        4.5509388947835427     
  0.13349999662750633        1.7108291777611926        4.5498577549498185     
  0.13359999662498012        1.7112841094888760        4.5487767858284123     
  0.13369999662245391        1.7117389331281816        4.5476959873959935     
  0.13379999661992770        1.7121936486961769        4.5466153596292349     
  0.13389999661740148        1.7126482562099272        4.5455349025048113     
  0.13399999661487527        1.7131027556864957        4.5444546159994017     
  0.13409999661234906        1.7135571471429434        4.5433745000896879     
  0.13419999660982285        1.7140114305963283        4.5422945547523534     
  0.13429999660729663        1.7144656060637067        4.5412147799640863     
  0.13439999660477042        1.7149196735621322        4.5401351757015762     
  0.13449999660224421        1.7153736331086562        4.5390557419415174     
  0.13459999659971800        1.7158274847203279        4.5379764786606049     
  0.13469999659719178        1.7162812284141939        4.5368973858355384     
  0.13479999659466557        1.7167348642072988        4.5358184634430199     
  0.13489999659213936        1.7171883921166846        4.5347397114597543     
  0.13499999658961315        1.7176418121593913        4.5336611298624492     
  0.13509999658708693        1.7180951243524558        4.5325827186278165     
  0.13519999658456072        1.7185483287129137        4.5315044777325690     
  0.13529999658203451        1.7190014252577976        4.5304264071534250     
  0.13539999657950830        1.7194544140041379        4.5293485068671036     
  0.13549999657698208        1.7199072949689627        4.5282707768503272     
  0.13559999657445587        1.7203600681692979        4.5271932170798213     
  0.13569999657192966        1.7208127336221668        4.5261158275323154     
  0.13579999656940345        1.7212652913445907        4.5250386081845413     
  0.13589999656687723        1.7217177413535885        4.5239615590132329     
  0.13599999656435102        1.7221700836661764        4.5228846799951272     
  0.13609999656182481        1.7226223182993687        4.5218079711069654     
  0.13619999655929860        1.7230744452701772        4.5207314323254915     
  0.13629999655677238        1.7235264645956114        4.5196550636274511     
  0.13639999655424617        1.7239783762926786        4.5185788649895935     
  0.13649999655171996        1.7244301803783835        4.5175028363886716     
  0.13659999654919375        1.7248818768697287        4.5164269778014399     
  0.13669999654666753        1.7253334657837145        4.5153512892046566     
  0.13679999654414132        1.7257849471373385        4.5142757705750833     
  0.13689999654161511        1.7262363209475966        4.5132004218894837     
  0.13699999653908890        1.7266875872314817        4.5121252431246255     
  0.13709999653656268        1.7271387460059850        4.5110502342572776     
  0.13719999653403647        1.7275897972880951        4.5099753952642132     
  0.13729999653151026        1.7280407410947982        4.5089007261222092     
  0.13739999652898405        1.7284915774430780        4.5078262268080431     
  0.13749999652645783        1.7289423063499163        4.5067518972984972     
  0.13759999652393162        1.7293929278322926        4.5056777375703563     
  0.13769999652140541        1.7298434419071835        4.5046037476004077     
  0.13779999651887920        1.7302938485915640        4.5035299273654426     
  0.13789999651635299        1.7307441479024062        4.5024562768422536     
  0.13799999651382677        1.7311943398566803        4.5013827960076380     
  0.13809999651130056        1.7316444244713538        4.5003094848383949     
  0.13819999650877435        1.7320944017633924        4.4992363433113258     
  0.13829999650624814        1.7325442717497588        4.4981633714032370     
  0.13839999650372192        1.7329940344474140        4.4970905690909371     
  0.13849999650119571        1.7334436898733161        4.4960179363512367     
  0.13859999649866950        1.7338932380444216        4.4949454731609499     
  0.13869999649614329        1.7343426789776841        4.4938731794968936     
  0.13879999649361707        1.7347920126900549        4.4928010553358879     
  0.13889999649109086        1.7352412391984833        4.4917291006547559     
  0.13899999648856465        1.7356903585199162        4.4906573154303242     
  0.13909999648603844        1.7361393706712980        4.4895856996394201     
  0.13919999648351222        1.7365882756695710        4.4885142532588764     
  0.13929999648098601        1.7370370735316749        4.4874429762655277     
  0.13939999647845980        1.7374857642745474        4.4863718686362120     
  0.13949999647593359        1.7379343479151237        4.4853009303477691     
  0.13959999647340737        1.7383828244703368        4.4842301613770426     
  0.13969999647088116        1.7388311939571173        4.4831595617008793     
  0.13979999646835495        1.7392794563923935        4.4820891312961288     
  0.13989999646582874        1.7397276117930913        4.4810188701396427     
  0.13999999646330252        1.7401756601761345        4.4799487782082767     
  0.14009999646077631        1.7406236015584442        4.4788788554788894     
  0.14019999645825010        1.7410714359569397        4.4778091019283419     
  0.14029999645572389        1.7415191633885376        4.4767395175334972     
  0.14039999645319767        1.7419667838701525        4.4756701022712235     
  0.14049999645067146        1.7424142974186962        4.4746008561183901     
  0.14059999644814525        1.7428617040510788        4.4735317790518705     
  0.14069999644561904        1.7433090037842074        4.4724628710485401     
  0.14079999644309282        1.7437561966349875        4.4713941320852779     
  0.14089999644056661        1.7442032826203218        4.4703255621389646     
  0.14099999643804040        1.7446502617571109        4.4692571611864862     
  0.14109999643551419        1.7450971340622530        4.4681889292047297     
  0.14119999643298797        1.7455438995526440        4.4671208661705855     
  0.14129999643046176        1.7459905582451776        4.4660529720609468     
  0.14139999642793555        1.7464371101567449        4.4649852468527103     
  0.14149999642540934        1.7468835553042350        4.4639176905227753     
  0.14159999642288312        1.7473298937045345        4.4628503030480440     
  0.14169999642035691        1.7477761253745279        4.4617830844054209     
  0.14179999641783070        1.7482222503310971        4.4607160345718153     
  0.14189999641530449        1.7486682685911221        4.4596491535241372     
  0.14199999641277827        1.7491141801714802        4.4585824412393009     
  0.14209999641025206        1.7495599850890464        4.4575158976942229     
  0.14219999640772585        1.7500056833606936        4.4564495228658236     
  0.14229999640519964        1.7504512750032923        4.4553833167310257     
  0.14239999640267342        1.7508967600337109        4.4543172792667542     
  0.14249999640014721        1.7513421384688150        4.4532514104499379     
  0.14259999639762100        1.7517874103254685        4.4521857102575089     
  0.14269999639509479        1.7522325756205326        4.4511201786664012     
  0.14279999639256857        1.7526776343708661        4.4500548156535515     
  0.14289999639004236        1.7531225865933258        4.4489896211959010     
  0.14299999638751615        1.7535674323047661        4.4479245952703925     
  0.14309999638498994        1.7540121715220389        4.4468597378539725     
  0.14319999638246372        1.7544568042619941        4.4457950489235900     
  0.14329999637993751        1.7549013305414791        4.4447305284561969     
  0.14339999637741130        1.7553457503773391        4.4436661764287475     
  0.14349999637488509        1.7557900637864170        4.4426019928182008     
  0.14359999637235887        1.7562342707855532        4.4415379776015165     
  0.14369999636983266        1.7566783713915859        4.4404741307556588     
  0.14379999636730645        1.7571223656213513        4.4394104522575946     
  0.14389999636478024        1.7575662534916827        4.4383469420842925     
  0.14399999636225402        1.7580100350194117        4.4372836002127256     
  0.14409999635972781        1.7584537102213671        4.4362204266198688     
  0.14419999635720160        1.7588972791143758        4.4351574212827014     
  0.14429999635467539        1.7593407417152620        4.4340945841782036     
  0.14439999635214917        1.7597840980408479        4.4330319152833599     
  0.14449999634962296        1.7602273481079533        4.4319694145751578     
  0.14459999634709675        1.7606704919333960        4.4309070820305871     
  0.14469999634457054        1.7611135295339908        4.4298449176266406     
  0.14479999634204432        1.7615564609265508        4.4287829213403134     
  0.14489999633951811        1.7619992861278866        4.4277210931486053     
  0.14499999633699190        1.7624420051548066        4.4266594330285169     
  0.14509999633446569        1.7628846180241167        4.4255979409570534     
  0.14519999633193947        1.7633271247526205        4.4245366169112224     
  0.14529999632941326        1.7637695253571197        4.4234754608680342     
  0.14539999632688705        1.7642118198544132        4.4224144728045021     
  0.14549999632436084        1.7646540082612980        4.4213536526976425     
  0.14559999632183462        1.7650960905945685        4.4202930005244738     
  0.14569999631930841        1.7655380668710170        4.4192325162620190     
  0.14579999631678220        1.7659799371074332        4.4181721998873025     
  0.14589999631425599        1.7664217013206049        4.4171120513773525     
  0.14599999631172977        1.7668633595273175        4.4160520707091999     
  0.14609999630920356        1.7673049117443540        4.4149922578598790     
  0.14619999630667735        1.7677463579884949        4.4139326128064260     
  0.14629999630415114        1.7681876982765188        4.4128731355258797     
  0.14639999630162492        1.7686289326252018        4.4118138259952833     
  0.14649999629909871        1.7690700610513179        4.4107546841916818     
  0.14659999629657250        1.7695110835716386        4.4096957100921239     
  0.14669999629404629        1.7699520002029330        4.4086369036736608     
  0.14679999629152007        1.7703928109619682        4.4075782649133473     
  0.14689999628899386        1.7708335158655089        4.4065197937882390     
  0.14699999628646765        1.7712741149303173        4.4054614902753970     
  0.14709999628394144        1.7717146081731536        4.4044033543518832     
  0.14719999628141522        1.7721549956107756        4.4033453859947640     
  0.14729999627888901        1.7725952772599389        4.4022875851811083     
  0.14739999627636280        1.7730354531373966        4.4012299518879878     
  0.14749999627383659        1.7734755232598995        4.4001724860924769     
  0.14759999627131037        1.7739154876441963        4.3991151877716526     
  0.14769999626878416        1.7743553463070332        4.3980580569025953     
  0.14779999626625795        1.7747950992651544        4.3970010934623884     
  0.14789999626373174        1.7752347465353018        4.3959442974281178     
  0.14799999626120552        1.7756742881342145        4.3948876687768728     
  0.14809999625867931        1.7761137240786298        4.3938312074857455     
  0.14819999625615310        1.7765530543852825        4.3927749135318308     
  0.14829999625362689        1.7769922790709054        4.3917187868922261     
  0.14839999625110067        1.7774313981522285        4.3906628275440323     
  0.14849999624857446        1.7778704116459798        4.3896070354643530     
  0.14859999624604825        1.7783093195688853        4.3885514106302947     
  0.14869999624352204        1.7787481219376682        4.3874959530189672     
  0.14879999624099582        1.7791868187690496        4.3864406626074830     
  0.14889999623846961        1.7796254100797484        4.3853855393729564     
  0.14899999623594340        1.7800638958864812        4.3843305832925061     
  0.14909999623341719        1.7805022762059621        4.3832757943432528     
  0.14919999623089097        1.7809405510549035        4.3822211725023203     
  0.14929999622836476        1.7813787204500147        4.3811667177468365     
  0.14939999622583855        1.7818167844080031        4.3801124300539298     
  0.14949999622331234        1.7822547429455740        4.3790583094007340     
  0.14959999622078612        1.7826925960794300        4.3780043557643840     
  0.14969999621825991        1.7831303438262718        4.3769505691220179     
  0.14979999621573370        1.7835679862027976        4.3758969494507776     
  0.14989999621320749        1.7840055232257035        4.3748434967278076     
  0.14999999621068127        1.7844429549116831        4.3737902109302542     
  0.15009999620815506        1.7848802812774278        4.3727370920352682     
  0.15019999620562885        1.7853175023396266        4.3716841400200019     
  0.15029999620310264        1.7857546181149664        4.3706313548616125     
  0.15039999620057642        1.7861916286201318        4.3695787365372576     
  0.15049999619805021        1.7866285338718051        4.3685262850240987     
  0.15059999619552400        1.7870653338866662        4.3674740002993007     
  0.15069999619299779        1.7875020286813927        4.3664218823400311     
  0.15079999619047157        1.7879386182726602        4.3653699311234604     
  0.15089999618794536        1.7883751026771417        4.3643181466267622     
  0.15099999618541915        1.7888114819115082        4.3632665288271122     
  0.15109999618289294        1.7892477559924280        4.3622150777016895     
  0.15119999618036672        1.7896839249365677        4.3611637932276759     
  0.15129999617784051        1.7901199887605912        4.3601126753822559     
  0.15139999617531430        1.7905559474811601        4.3590617241426184     
  0.15149999617278809        1.7909918011149339        4.3580109394859532     
  0.15159999617026187        1.7914275496785697        4.3569603213894537     
  0.15169999616773566        1.7918631931887223        4.3559098698303167     
