   0.0000000000000000        0.0000000000000000        34.500000253319740     
   9.9999997473787516E-005   3.4499510409957148E-003   34.499020253296216     
   1.9999999494757503E-004   6.8998040819886319E-003   34.498040253272691     
   2.9999999242136255E-004   1.0349559122978752E-002   34.497060253249167     
   3.9999998989515007E-004   1.3799216163966075E-002   34.496080253225642     
   4.9999998736893758E-004   1.7248775204950599E-002   34.495100253202118     
   5.9999998484272510E-004   2.0698236245932328E-002   34.494120253178593     
   6.9999998231651261E-004   2.4147599286911257E-002   34.493140253155069     
   7.9999997979030013E-004   2.7596864327887390E-002   34.492160253131544     
   8.9999997726408765E-004   3.1046031368860725E-002   34.491180253108020     
   9.9999997473787516E-004   3.4495100409831260E-002   34.490200253084495     
   1.0999999722116627E-003   3.7944071450798998E-002   34.489220253060971     
   1.1999999696854502E-003   4.1392944491763943E-002   34.488240253037446     
   1.2999999671592377E-003   4.4841719532726088E-002   34.487260253013922     
   1.3999999646330252E-003   4.8290396573685439E-002   34.486280252990397     
   1.4999999621068127E-003   5.1738975614641990E-002   34.485300252966873     
   1.5999999595806003E-003   5.5187456655595747E-002   34.484320252943348     
   1.6999999570543878E-003   5.8635839696546704E-002   34.483340252919824     
   1.7999999545281753E-003   6.2084124737494861E-002   34.482360252896299     
   1.8999999520019628E-003   6.5532311778440225E-002   34.481380252872775     
   1.9999999494757503E-003   6.8980400819382795E-002   34.480400252849250     
   2.0999999469495378E-003   7.2428391860322558E-002   34.479420252825726     
   2.1999999444233254E-003   7.5876284901259528E-002   34.478440252802201     
   2.2999999418971129E-003   7.9324079942193704E-002   34.477460252778677     
   2.3999999393709004E-003   8.2771776983125073E-002   34.476480252755152     
   2.4999999368446879E-003   8.6219376024053648E-002   34.475500252731628     
   2.5999999343184754E-003   8.9666877064979431E-002   34.474520252708103     
   2.6999999317922629E-003   9.3114280105902419E-002   34.473540252684579     
   2.7999999292660505E-003   9.6561585146822601E-002   34.472560252661054     
   2.8999999267398380E-003  0.10000879218773999        34.471580252637530     
   2.9999999242136255E-003  0.10345590122865458        34.470600252614005     
   3.0999999216874130E-003  0.10690291226956637        34.469620252590481     
   3.1999999191612005E-003  0.11034982531047537        34.468640252566956     
   3.2999999166349880E-003  0.11379664035138157        34.467660252543432     
   3.3999999141087756E-003  0.11724335739228497        34.466680252519907     
   3.4999999115825631E-003  0.12068997643318558        34.465700252496383     
   3.5999999090563506E-003  0.12413649747408338        34.464720252472858     
   3.6999999065301381E-003  0.12758292051497838        34.463740252449334     
   3.7999999040039256E-003  0.13102924555587059        34.462760252425809     
   3.8999999014777131E-003  0.13447547259676002        34.461780252402285     
   3.9999998989515007E-003  0.13792160163764663        34.460800252378760     
   4.0999998964252882E-003  0.14136763267853045        34.459820252355236     
   4.1999998938990757E-003  0.14481356571941148        34.458840252331711     
   4.2999998913728632E-003  0.14825940076028971        34.457860252308187     
   4.3999998888466507E-003  0.15170513780116512        34.456880252284662     
   4.4999998863204382E-003  0.15515077684203776        34.455900252261138     
   4.5999998837942258E-003  0.15859631788290759        34.454920252237613     
   4.6999998812680133E-003  0.16204176092377462        34.453940252214089     
   4.7999998787418008E-003  0.16548710596463886        34.452960252190564     
   4.8999998762155883E-003  0.16893235300550030        34.451980252167040     
   4.9999998736893758E-003  0.17237750204635893        34.451000252143515     
   5.0999998711631633E-003  0.17582255308721478        34.450020252119991     
   5.1999998686369509E-003  0.17926750612806783        34.449040252096466     
   5.2999998661107384E-003  0.18271236116891809        34.448060252072942     
   5.3999998635845259E-003  0.18615711820976555        34.447080252049417     
   5.4999998610583134E-003  0.18960177725061020        34.446100252025893     
   5.5999998585321009E-003  0.19304633829145207        34.445120252002368     
   5.6999998560058884E-003  0.19649080133229113        34.444140251978844     
   5.7999998534796759E-003  0.19993516637312739        34.443160251955319     
   5.8999998509534635E-003  0.20337943341396086        34.442180251931795     
   5.9999998484272510E-003  0.20682360245479153        34.441200251908271     
   6.0999998459010385E-003  0.21026767349561939        34.440220251884746     
   6.1999998433748260E-003  0.21371164653644448        34.439240251861222     
   6.2999998408486135E-003  0.21715552157726675        34.438260251837697     
   6.3999998383224010E-003  0.22059929861808622        34.437280251814173     
   6.4999998357961886E-003  0.22404297765890291        34.436300251790648     
   6.5999998332699761E-003  0.22748655869971679        34.435320251767124     
   6.6999998307437636E-003  0.23093004174052786        34.434340251743599     
   6.7999998282175511E-003  0.23437342678133616        34.433360251720075     
   6.8999998256913386E-003  0.23781671382214165        34.432380251696550     
   6.9999998231651261E-003  0.24125990286294435        34.431400251673026     
   7.0999998206389137E-003  0.24470299390374425        34.430420251649501     
   7.1999998181127012E-003  0.24814598694454135        34.429440251625977     
   7.2999998155864887E-003  0.25158888198533563        34.428460251602452     
   7.3999998130602762E-003  0.25503167902612711        34.427480251578928     
   7.4999998105340637E-003  0.25847437806691581        34.426500251555403     
   7.5999998080078512E-003  0.26191697910770173        34.425520251531879     
   7.6999998054816388E-003  0.26535948214848487        34.424540251508354     
   7.7999998029554263E-003  0.26880188718926518        34.423560251484830     
   7.8999998004292138E-003  0.27224419423004270        34.422580251461305     
   7.9999997979030013E-003  0.27568640327081745        34.421600251437781     
   8.0999997953767888E-003  0.27912851431158936        34.420620251414256     
   8.1999997928505763E-003  0.28257052735235849        34.419640251390732     
   8.2999997903243639E-003  0.28601244239312484        34.418660251367207     
   8.3999997877981514E-003  0.28945425943388836        34.417680251343683     
   8.4999997852719389E-003  0.29289597847464910        34.416700251320158     
   8.5999997827457264E-003  0.29633759951540706        34.415720251296634     
   8.6999997802195139E-003  0.29977912255616218        34.414740251273109     
   8.7999997776933014E-003  0.30322054759691452        34.413760251249585     
   8.8999997751670890E-003  0.30666187463766409        34.412780251226060     
   8.9999997726408765E-003  0.31010310367841082        34.411800251202536     
   9.0999997701146640E-003  0.31354423471915477        34.410820251179011     
   9.1999997675884515E-003  0.31698526775989594        34.409840251155487     
   9.2999997650622390E-003  0.32042620280063427        34.408860251131962     
   9.3999997625360265E-003  0.32386703984136983        34.407880251108438     
   9.4999997600098141E-003  0.32730777888210261        34.406900251084913     
   9.5999997574836016E-003  0.33074841992283255        34.405920251061389     
   9.6999997549573891E-003  0.33418896296355971        34.404940251037864     
   9.7999997524311766E-003  0.33762940800428409        34.403960251014340     
   9.8999997499049641E-003  0.34106975504500564        34.402980250990815     
   9.9999997473787516E-003  0.34451000408572441        34.402000250967291     
   1.0099999744852539E-002  0.34795015512644040        34.401020250943766     
   1.0199999742326327E-002  0.35139020816715355        34.400040250920242     
   1.0299999739800114E-002  0.35483016320786392        34.399060250896717     
   1.0399999737273902E-002  0.35827002024857152        34.398080250873193     
   1.0499999734747689E-002  0.36170977928927628        34.397100250849668     
   1.0599999732221477E-002  0.36514944032997826        34.396120250826144     
   1.0699999729695264E-002  0.36858900337067746        34.395140250802619     
   1.0799999727169052E-002  0.37202846841137388        34.394160250779095     
   1.0899999724642839E-002  0.37546783545206747        34.393180250755570     
   1.0999999722116627E-002  0.37890710449275827        34.392200250732046     
   1.1099999719590414E-002  0.38234627553344630        34.391220250708521     
   1.1199999717064202E-002  0.38578534857413149        34.390240250684997     
   1.1299999714537989E-002  0.38922432361481391        34.389260250661472     
   1.1399999712011777E-002  0.39266320065549354        34.388280250637948     
   1.1499999709485564E-002  0.39610197969617034        34.387300250614423     
   1.1599999706959352E-002  0.39954066073684436        34.386320250590899     
   1.1699999704433139E-002  0.40297924377751559        34.385340250567374     
   1.1799999701906927E-002  0.40641772881818400        34.384360250543850     
   1.1899999699380714E-002  0.40985611585884962        34.383380250520325     
   1.1999999696854502E-002  0.41329440489951247        34.382400250496801     
   1.2099999694328289E-002  0.41673259594017248        34.381420250473276     
   1.2199999691802077E-002  0.42017068898082971        34.380440250449752     
   1.2299999689275865E-002  0.42360868402148416        34.379460250426227     
   1.2399999686749652E-002  0.42704658106213578        34.378480250402703     
   1.2499999684223440E-002  0.43048438010278461        34.377500250379178     
   1.2599999681697227E-002  0.43392208114343067        34.376520250355654     
   1.2699999679171015E-002  0.43735968418407389        34.375540250332129     
   1.2799999676644802E-002  0.44079718922471434        34.374560250308605     
   1.2899999674118590E-002  0.44423459626535200        34.373580250285080     
   1.2999999671592377E-002  0.44767190530598683        34.372600250261556     
   1.3099999669066165E-002  0.45110911634661888        34.371620250238031     
   1.3199999666539952E-002  0.45454622938724815        34.370640250214507     
   1.3299999664013740E-002  0.45798324442787458        34.369660250190982     
   1.3399999661487527E-002  0.46142016146849824        34.368680250167458     
   1.3499999658961315E-002  0.46485698050911911        34.367700250143933     
   1.3599999656435102E-002  0.46829370154973715        34.366720250120409     
   1.3699999653908890E-002  0.47173032459035241        34.365740250096884     
   1.3799999651382677E-002  0.47516684963096489        34.364760250073360     
   1.3899999648856465E-002  0.47860327667157460        34.363780250049835     
   1.3999999646330252E-002  0.48203960571218146        34.362800250026311     
   1.4099999643804040E-002  0.48547583675278555        34.361820250002786     
   1.4199999641277827E-002  0.48891196979338686        34.360840249979262     
   1.4299999638751615E-002  0.49234800483398533        34.359860249955737     
   1.4399999636225402E-002  0.49578394187458102        34.358880249932213     
   1.4499999633699190E-002  0.49921978091517394        34.357900249908688     
   1.4599999631172977E-002  0.50265552195576402        34.356920249885164     
   1.4699999628646765E-002  0.50609116499635132        34.355940249861639     
   1.4799999626120552E-002  0.50952671003693584        34.354960249838115     
   1.4899999623594340E-002  0.51296215707751758        34.353980249814590     
   1.4999999621068127E-002  0.51639750611809643        34.353000249791066     
   1.5099999618541915E-002  0.51983275715867250        34.352020249767541     
   1.5199999616015702E-002  0.52326791019924579        34.351040249744017     
   1.5299999613489490E-002  0.52670296523981630        34.350060249720492     
   1.5399999610963278E-002  0.53013792228038403        34.349080249696968     
   1.5499999608437065E-002  0.53357278132094899        34.348100249673443     
   1.5599999605910853E-002  0.53700754236151116        34.347120249649919     
   1.5699999603384640E-002  0.54044220540207044        34.346140249626394     
   1.5799999600858428E-002  0.54387677044262694        34.345160249602870     
   1.5899999598332215E-002  0.54731123748318067        34.344180249579345     
   1.5999999595806003E-002  0.55074560652373161        34.343200249555821     
   1.6099999593279790E-002  0.55417987756427978        34.342220249532296     
   1.6199999590753578E-002  0.55761405060482516        34.341240249508772     
   1.6299999588227365E-002  0.56104812564536766        34.340260249485247     
   1.6399999585701153E-002  0.56448210268590737        34.339280249461723     
   1.6499999583174940E-002  0.56791598172644431        34.338300249438198     
   1.6599999580648728E-002  0.57134976276697846        34.337320249414674     
   1.6699999578122515E-002  0.57478344580750984        34.336340249391149     
   1.6799999575596303E-002  0.57821703084803844        34.335360249367625     
   1.6899999573070090E-002  0.58165051788856414        34.334380249344100     
   1.6999999570543878E-002  0.58508390692908707        34.333400249320576     
   1.7099999568017665E-002  0.58851719796960722        34.332420249297051     
   1.7199999565491453E-002  0.59195039101012459        34.331440249273527     
   1.7299999562965240E-002  0.59538348605063918        34.330460249250002     
   1.7399999560439028E-002  0.59881648309115099        34.329480249226478     
   1.7499999557912815E-002  0.60224938213165990        34.328500249202953     
   1.7599999555386603E-002  0.60568218317216604        34.327520249179429     
   1.7699999552860390E-002  0.60911488621266940        34.326540249155904     
   1.7799999550334178E-002  0.61254749125316998        34.325560249132380     
   1.7899999547807965E-002  0.61597999829366779        34.324580249108855     
   1.7999999545281753E-002  0.61941240733416281        34.323600249085331     
   1.8099999542755540E-002  0.62284471837465494        34.322620249061806     
   1.8199999540229328E-002  0.62627693141514429        34.321640249038282     
   1.8299999537703115E-002  0.62970904645563086        34.320660249014757     
   1.8399999535176903E-002  0.63314106349611465        34.319680248991233     
   1.8499999532650691E-002  0.63657298253659567        34.318700248967708     
   1.8599999530124478E-002  0.64000480357707390        34.317720248944184     
   1.8699999527598266E-002  0.64343652661754935        34.316740248920659     
   1.8799999525072053E-002  0.64686815165802192        34.315760248897135     
   1.8899999522545841E-002  0.65029967869849170        34.314780248873610     
   1.8999999520019628E-002  0.65373110773895871        34.313800248850086     
   1.9099999517493416E-002  0.65716243877942293        34.312820248826561     
   1.9199999514967203E-002  0.66059367181988438        34.311840248803037     
   1.9299999512440991E-002  0.66402480686034304        34.310860248779512     
   1.9399999509914778E-002  0.66745584390079882        34.309880248755988     
   1.9499999507388566E-002  0.67088678294125181        34.308900248732463     
   1.9599999504862353E-002  0.67431762398170203        34.307920248708939     
   1.9699999502336141E-002  0.67774836702214947        34.306940248685414     
   1.9799999499809928E-002  0.68117901206259412        34.305960248661890     
   1.9899999497283716E-002  0.68460955910303600        34.304980248638365     
   1.9999999494757503E-002  0.68804000814347499        34.304000248614841     
   2.0099999492231291E-002  0.69147035918391120        34.303020248591316     
   2.0199999489705078E-002  0.69490061222434463        34.302040248567792     
   2.0299999487178866E-002  0.69833076726477528        34.301060248544267     
   2.0399999484652653E-002  0.70176082430520315        34.300080248520743     
   2.0499999482126441E-002  0.70519078334562824        34.299100248497219     
   2.0599999479600228E-002  0.70862064438605044        34.298120248473694     
   2.0699999477074016E-002  0.71205040742646986        34.297140248450170     
   2.0799999474547803E-002  0.71548007246688650        34.296160248426645     
   2.0899999472021591E-002  0.71890963950730036        34.295180248403121     
   2.0999999469495378E-002  0.72233910854771144        34.294200248379596     
   2.1099999466969166E-002  0.72576847958811974        34.293220248356072     
   2.1199999464442953E-002  0.72919775262852515        34.292240248332547     
   2.1299999461916741E-002  0.73262692766892779        34.291260248309023     
   2.1399999459390529E-002  0.73605600470932764        34.290280248285498     
   2.1499999456864316E-002  0.73948498374972471        34.289300248261974     
   2.1599999454338104E-002  0.74291386479011901        34.288320248238449     
   2.1699999451811891E-002  0.74634264783051052        34.287340248214925     
   2.1799999449285679E-002  0.74977133287089925        34.286360248191400     
   2.1899999446759466E-002  0.75319991991128510        34.285380248167876     
   2.1999999444233254E-002  0.75662840895166816        34.284400248144351     
   2.2099999441707041E-002  0.76005679999204845        34.283420248120827     
   2.2199999439180829E-002  0.76348509303242595        34.282440248097302     
   2.2299999436654616E-002  0.76691328807280068        34.281460248073778     
   2.2399999434128404E-002  0.77034138511317263        34.280480248050253     
   2.2499999431602191E-002  0.77376938415354168        34.279500248026729     
   2.2599999429075979E-002  0.77719728519390796        34.278520248003204     
   2.2699999426549766E-002  0.78062508823427146        34.277540247979680     
   2.2799999424023554E-002  0.78405279327463218        34.276560247956155     
   2.2899999421497341E-002  0.78748040031499011        34.275580247932631     
   2.2999999418971129E-002  0.79090790935534527        34.274600247909106     
   2.3099999416444916E-002  0.79433532039569754        34.273620247885582     
   2.3199999413918704E-002  0.79776263343604703        34.272640247862057     
   2.3299999411392491E-002  0.80118984847639374        34.271660247838533     
   2.3399999408866279E-002  0.80461696551673767        34.270680247815008     
   2.3499999406340066E-002  0.80804398455707882        34.269700247791484     
   2.3599999403813854E-002  0.81147090559741719        34.268720247767959     
   2.3699999401287641E-002  0.81489772863775267        34.267740247744435     
   2.3799999398761429E-002  0.81832445367808537        34.266760247720910     
   2.3899999396235216E-002  0.82175108071841529        34.265780247697386     
   2.3999999393709004E-002  0.82517760975874244        34.264800247673861     
   2.4099999391182791E-002  0.82860404079906680        34.263820247650337     
   2.4199999388656579E-002  0.83203037383938838        34.262840247626812     
   2.4299999386130366E-002  0.83545660887970707        34.261860247603288     
   2.4399999383604154E-002  0.83888274592002299        34.260880247579763     
   2.4499999381077942E-002  0.84230878496033612        34.259900247556239     
   2.4599999378551729E-002  0.84573472600064648        34.258920247532714     
   2.4699999376025517E-002  0.84916056904095405        34.257940247509190     
   2.4799999373499304E-002  0.85258631408125884        34.256960247485665     
   2.4899999370973092E-002  0.85601196112156086        34.255980247462141     
   2.4999999368446879E-002  0.85943751016185999        34.255000247438616     
   2.5099999365920667E-002  0.86286296120215633        34.254020247415092     
   2.5199999363394454E-002  0.86628831424244990        34.253040247391567     
   2.5299999360868242E-002  0.86971356928274068        34.252060247368043     
   2.5399999358342029E-002  0.87313872632302869        34.251080247344518     
   2.5499999355815817E-002  0.87656378536331392        34.250100247320994     
   2.5599999353289604E-002  0.87998874640359626        34.249120247297469     
   2.5699999350763392E-002  0.88341360944387581        34.248140247273945     
   2.5799999348237179E-002  0.88683837448415259        34.247160247250420     
   2.5899999345710967E-002  0.89026304152442659        34.246180247226896     
   2.5999999343184754E-002  0.89368761056469781        34.245200247203371     
   2.6099999340658542E-002  0.89711208160496625        34.244220247179847     
   2.6199999338132329E-002  0.90053645464523180        34.243240247156322     
   2.6299999335606117E-002  0.90396072968549457        34.242260247132798     
   2.6399999333079904E-002  0.90738490672575456        34.241280247109273     
   2.6499999330553692E-002  0.91080898576601177        34.240300247085749     
   2.6599999328027479E-002  0.91423296680626620        34.239320247062224     
   2.6699999325501267E-002  0.91765684984651785        34.238340247038700     
   2.6799999322975054E-002  0.92108063488676661        34.237360247015175     
   2.6899999320448842E-002  0.92450432192701260        34.236380246991651     
   2.6999999317922629E-002  0.92792791096725580        34.235400246968126     
   2.7099999315396417E-002  0.93135140200749622        34.234420246944602     
   2.7199999312870204E-002  0.93477479504773386        34.233440246921077     
   2.7299999310343992E-002  0.93819809008796873        34.232460246897553     
   2.7399999307817779E-002  0.94162128712820070        34.231480246874028     
   2.7499999305291567E-002  0.94504438616842990        34.230500246850504     
   2.7599999302765355E-002  0.94846738720865631        34.229520246826979     
   2.7699999300239142E-002  0.95189029024887994        34.228540246803455     
   2.7799999297712930E-002  0.95531309528910080        34.227560246779930     
   2.7899999295186717E-002  0.95873580232931888        34.226580246756406     
   2.7999999292660505E-002  0.96215841136953417        34.225600246732881     
   2.8099999290134292E-002  0.96558092240974658        34.224620246709357     
   2.8199999287608080E-002  0.96900333544995620        34.223640246685832     
   2.8299999285081867E-002  0.97242565049016305        34.222660246662308     
   2.8399999282555655E-002  0.97584786753036712        34.221680246638783     
   2.8499999280029442E-002  0.97926998657056841        34.220700246615259     
   2.8599999277503230E-002  0.98269200761076692        34.219720246591734     
   2.8699999274977017E-002  0.98611393065096253        34.218740246568210     
   2.8799999272450805E-002  0.98953575569115537        34.217760246544685     
   2.8899999269924592E-002  0.99295748273134543        34.216780246521161     
   2.8999999267398380E-002  0.99637911177153271        34.215800246497636     
   2.9099999264872167E-002  0.99980064281171721        34.214820246474112     
   2.9199999262345955E-002   1.0032220758518988        34.213840246450587     
   2.9299999259819742E-002   1.0066434108920777        34.212860246427063     
   2.9399999257293530E-002   1.0100646479322537        34.211880246403538     
   2.9499999254767317E-002   1.0134857869724270        34.210900246380014     
   2.9599999252241105E-002   1.0169068280125975        34.209920246356489     
   2.9699999249714892E-002   1.0203277710527652        34.208940246332965     
   2.9799999247188680E-002   1.0237486160929301        34.207960246309440     
   2.9899999244662467E-002   1.0271693631330923        34.206980246285916     
   2.9999999242136255E-002   1.0305900121732516        34.206000246262391     
   3.0099999239610042E-002   1.0340105632134082        34.205020246238867     
   3.0199999237083830E-002   1.0374310162535618        34.204040246215342     
   3.0299999234557617E-002   1.0408513712937126        34.203060246191818     
   3.0399999232031405E-002   1.0442716283338607        34.202080246168293     
   3.0499999229505192E-002   1.0476917873740059        34.201100246144769     
   3.0599999226978980E-002   1.0511118484141484        34.200120246121244     
   3.0699999224452768E-002   1.0545318114542881        34.199140246097720     
   3.0799999221926555E-002   1.0579516764944250        34.198160246074195     
   3.0899999219400343E-002   1.0613714435345591        34.197180246050671     
   3.0999999216874130E-002   1.0647911125746905        34.196200246027146     
   3.1099999214347918E-002   1.0682106836148191        34.195220246003622     
   3.1199999211821705E-002   1.0716301566549449        34.194240245980097     
   3.1299999209295493E-002   1.0750495316950679        34.193260245956573     
   3.1399999206769280E-002   1.0784688087351881        34.192280245933048     
   3.1499999204243068E-002   1.0818879877753054        34.191300245909524     
   3.1599999201716855E-002   1.0853070688154198        34.190320245885999     
   3.1699999199190643E-002   1.0887260518555315        34.189340245862475     
   3.1799999196664430E-002   1.0921449368956404        34.188360245838950     
   3.1899999194138218E-002   1.0955637239357465        34.187380245815426     
   3.1999999191612005E-002   1.0989824129758499        34.186400245791901     
   3.2099999189085793E-002   1.1024010040159504        34.185420245768377     
   3.2199999186559580E-002   1.1058194970560482        34.184440245744852     
   3.2299999184033368E-002   1.1092378920961432        34.183460245721328     
   3.2399999181507155E-002   1.1126561891362354        34.182480245697803     
   3.2499999178980943E-002   1.1160743881763249        34.181500245674279     
   3.2599999176454730E-002   1.1194924892164115        34.180520245650754     
   3.2699999173928518E-002   1.1229104922564952        34.179540245627230     
   3.2799999171402305E-002   1.1263283972965761        34.178560245603705     
   3.2899999168876093E-002   1.1297462043366542        34.177580245580181     
   3.2999999166349880E-002   1.1331639133767295        34.176600245556656     
   3.3099999163823668E-002   1.1365815244168020        34.175620245533132     
   3.3199999161297455E-002   1.1399990374568718        34.174640245509607     
   3.3299999158771243E-002   1.1434164524969388        34.173660245486083     
   3.3399999156245030E-002   1.1468337695370030        34.172680245462558     
   3.3499999153718818E-002   1.1502509885770644        34.171700245439034     
   3.3599999151192605E-002   1.1536681096171231        34.170720245415509     
   3.3699999148666393E-002   1.1570851326571789        34.169740245391985     
   3.3799999146140181E-002   1.1605020576972320        34.168760245368460     
   3.3899999143613968E-002   1.1639188847372823        34.167780245344936     
   3.3999999141087756E-002   1.1673356137773296        34.166800245321411     
   3.4099999138561543E-002   1.1707522448173742        34.165820245297887     
   3.4199999136035331E-002   1.1741687778574159        34.164840245274362     
   3.4299999133509118E-002   1.1775852128974549        34.163860245250838     
   3.4399999130982906E-002   1.1810015499374911        34.162880245227313     
   3.4499999128456693E-002   1.1844177889775245        34.161900245203789     
   3.4599999125930481E-002   1.1878339300175551        34.160920245180264     
   3.4699999123404268E-002   1.1912499730575830        34.159940245156740     
   3.4799999120878056E-002   1.1946659180976080        34.158960245133215     
   3.4899999118351843E-002   1.1980817651376303        34.157980245109691     
   3.4999999115825631E-002   1.2014975141776498        34.157000245086167     
   3.5099999113299418E-002   1.2049131652176666        34.156020245062642     
   3.5199999110773206E-002   1.2083287182576803        34.155040245039118     
   3.5299999108246993E-002   1.2117441732976912        34.154060245015593     
   3.5399999105720781E-002   1.2151595303376994        34.153080244992069     
   3.5499999103194568E-002   1.2185747893777048        34.152100244968544     
   3.5599999100668356E-002   1.2219899504177074        34.151120244945020     
   3.5699999098142143E-002   1.2254050134577072        34.150140244921495     
   3.5799999095615931E-002   1.2288199784977043        34.149160244897971     
   3.5899999093089718E-002   1.2322348455376986        34.148180244874446     
   3.5999999090563506E-002   1.2356496145776901        34.147200244850922     
   3.6099999088037293E-002   1.2390642856176788        34.146220244827397     
   3.6199999085511081E-002   1.2424788586576647        34.145240244803873     
   3.6299999082984868E-002   1.2458933336976479        34.144260244780348     
   3.6399999080458656E-002   1.2493077107376280        34.143280244756824     
   3.6499999077932443E-002   1.2527219897776054        34.142300244733299     
   3.6599999075406231E-002   1.2561361708175800        34.141320244709775     
   3.6699999072880019E-002   1.2595502538575518        34.140340244686250     
   3.6799999070353806E-002   1.2629642388975209        34.139360244662726     
   3.6899999067827594E-002   1.2663781259374871        34.138380244639201     
   3.6999999065301381E-002   1.2697919149774506        34.137400244615677     
   3.7099999062775169E-002   1.2732056060174113        34.136420244592152     
   3.7199999060248956E-002   1.2766191990573692        34.135440244568628     
   3.7299999057722744E-002   1.2800326940973243        34.134460244545103     
   3.7399999055196531E-002   1.2834460911372767        34.133480244521579     
   3.7499999052670319E-002   1.2868593901772263        34.132500244498054     
   3.7599999050144106E-002   1.2902725912171731        34.131520244474530     
   3.7699999047617894E-002   1.2936856942571169        34.130540244451005     
   3.7799999045091681E-002   1.2970986992970579        34.129560244427481     
   3.7899999042565469E-002   1.3005116063369961        34.128580244403956     
   3.7999999040039256E-002   1.3039244153769316        34.127600244380432     
   3.8099999037513044E-002   1.3073371264168643        34.126620244356907     
   3.8199999034986831E-002   1.3107497394567942        34.125640244333383     
   3.8299999032460619E-002   1.3141622544967213        34.124660244309858     
   3.8399999029934406E-002   1.3175746715366456        34.123680244286334     
   3.8499999027408194E-002   1.3209869905765672        34.122700244262809     
   3.8599999024881981E-002   1.3243992116164860        34.121720244239285     
   3.8699999022355769E-002   1.3278113346564020        34.120740244215760     
   3.8799999019829556E-002   1.3312233596963152        34.119760244192236     
   3.8899999017303344E-002   1.3346352867362254        34.118780244168711     
   3.8999999014777131E-002   1.3380471157761329        34.117800244145187     
   3.9099999012250919E-002   1.3414588468160376        34.116820244121662     
   3.9199999009724706E-002   1.3448704798559394        34.115840244098138     
   3.9299999007198494E-002   1.3482820148958385        34.114860244074613     
   3.9399999004672281E-002   1.3516934519357349        34.113880244051089     
   3.9499999002146069E-002   1.3551047909756284        34.112900244027564     
   3.9599998999619856E-002   1.3585160320155192        34.111920244004040     
   3.9699998997093644E-002   1.3619271750554072        34.110940243980515     
   3.9799998994567432E-002   1.3653382200952924        34.109960243956991     
   3.9899998992041219E-002   1.3687491671351748        34.108980243933466     
   3.9999998989515007E-002   1.3721600161750545        34.108000243909942     
   4.0099998986988794E-002   1.3755707672149313        34.107020243886417     
   4.0199998984462582E-002   1.3789814202548052        34.106040243862893     
   4.0299998981936369E-002   1.3823919752946763        34.105060243839368     
   4.0399998979410157E-002   1.3858024323345446        34.104080243815844     
   4.0499998976883944E-002   1.3892127913744101        34.103100243792319     
   4.0599998974357732E-002   1.3926230524142729        34.102120243768795     
   4.0699998971831519E-002   1.3960332154541328        34.101140243745270     
   4.0799998969305307E-002   1.3994432804939900        34.100160243721746     
   4.0899998966779094E-002   1.4028532475338444        34.099180243698221     
   4.0999998964252882E-002   1.4062631165736961        34.098200243674697     
   4.1099998961726669E-002   1.4096728876135449        34.097220243651172     
   4.1199998959200457E-002   1.4130825606533910        34.096240243627648     
   4.1299998956674244E-002   1.4164921356932343        34.095260243604123     
   4.1399998954148032E-002   1.4199016127330746        34.094280243580599     
   4.1499998951621819E-002   1.4233109917729121        34.093300243557074     
   4.1599998949095607E-002   1.4267202728127468        34.092320243533550     
   4.1699998946569394E-002   1.4301294558525788        34.091340243510025     
   4.1799998944043182E-002   1.4335385408924080        34.090360243486501     
   4.1899998941516969E-002   1.4369475279322343        34.089380243462976     
   4.1999998938990757E-002   1.4403564169720580        34.088400243439452     
   4.2099998936464544E-002   1.4437652080118788        34.087420243415927     
   4.2199998933938332E-002   1.4471739010516969        34.086440243392403     
   4.2299998931412119E-002   1.4505824960915121        34.085460243368878     
   4.2399998928885907E-002   1.4539909931313246        34.084480243345354     
   4.2499998926359694E-002   1.4573993921711343        34.083500243321829     
   4.2599998923833482E-002   1.4608076932109411        34.082520243298305     
   4.2699998921307269E-002   1.4642158962507450        34.081540243274780     
   4.2799998918781057E-002   1.4676240012905462        34.080560243251256     
   4.2899998916254845E-002   1.4710320083303445        34.079580243227731     
   4.2999998913728632E-002   1.4744399173701401        34.078600243204207     
   4.3099998911202420E-002   1.4778477284099329        34.077620243180682     
   4.3199998908676207E-002   1.4812554414497230        34.076640243157158     
   4.3299998906149995E-002   1.4846630564895102        34.075660243133633     
   4.3399998903623782E-002   1.4880705735292947        34.074680243110109     
   4.3499998901097570E-002   1.4914779925690764        34.073700243086584     
   4.3599998898571357E-002   1.4948853136088553        34.072720243063060     
   4.3699998896045145E-002   1.4982925366486315        34.071740243039535     
   4.3799998893518932E-002   1.5016996616884049        34.070760243016011     
   4.3899998890992720E-002   1.5051066887281752        34.069780242992486     
   4.3999998888466507E-002   1.5085136177679428        34.068800242968962     
   4.4099998885940295E-002   1.5119204488077076        34.067820242945437     
   4.4199998883414082E-002   1.5153271818474696        34.066840242921913     
   4.4299998880887870E-002   1.5187338168872289        34.065860242898388     
   4.4399998878361657E-002   1.5221403539269853        34.064880242874864     
   4.4499998875835445E-002   1.5255467929667390        34.063900242851339     
   4.4599998873309232E-002   1.5289531340064899        34.062920242827815     
   4.4699998870783020E-002   1.5323593770462380        34.061940242804290     
   4.4799998868256807E-002   1.5357655220859834        34.060960242780766     
   4.4899998865730595E-002   1.5391715691257259        34.059980242757241     
   4.4999998863204382E-002   1.5425775181654657        34.059000242733717     
   4.5099998860678170E-002   1.5459833692052025        34.058020242710192     
   4.5199998858151957E-002   1.5493891222449365        34.057040242686668     
   4.5299998855625745E-002   1.5527947772846677        34.056060242663143     
   4.5399998853099532E-002   1.5562003343243962        34.055080242639619     
   4.5499998850573320E-002   1.5596057933641219        34.054100242616094     
   4.5599998848047107E-002   1.5630111544038447        34.053120242592570     
   4.5699998845520895E-002   1.5664164174435649        34.052140242569045     
   4.5799998842994682E-002   1.5698215824832822        34.051160242545521     
   4.5899998840468470E-002   1.5732266495229967        34.050180242521996     
   4.5999998837942258E-002   1.5766316185627085        34.049200242498472     
   4.6099998835416045E-002   1.5800364896024175        34.048220242474947     
   4.6199998832889833E-002   1.5834412626421237        34.047240242451423     
   4.6299998830363620E-002   1.5868459376818271        34.046260242427898     
   4.6399998827837408E-002   1.5902505147215276        34.045280242404374     
   4.6499998825311195E-002   1.5936549937612252        34.044300242380849     
   4.6599998822784983E-002   1.5970593748009201        34.043320242357325     
   4.6699998820258770E-002   1.6004636578406122        34.042340242333800     
   4.6799998817732558E-002   1.6038678428803015        34.041360242310276     
   4.6899998815206345E-002   1.6072719299199880        34.040380242286751     
   4.6999998812680133E-002   1.6106759189596718        34.039400242263227     
   4.7099998810153920E-002   1.6140798099993527        34.038420242239702     
   4.7199998807627708E-002   1.6174836030390309        34.037440242216178     
   4.7299998805101495E-002   1.6208872980787064        34.036460242192653     
   4.7399998802575283E-002   1.6242908951183790        34.035480242169129     
   4.7499998800049070E-002   1.6276943941580488        34.034500242145604     
   4.7599998797522858E-002   1.6310977951977157        34.033520242122080     
   4.7699998794996645E-002   1.6345010982373798        34.032540242098555     
   4.7799998792470433E-002   1.6379043032770411        34.031560242075031     
   4.7899998789944220E-002   1.6413074103166996        34.030580242051506     
   4.7999998787418008E-002   1.6447104193563553        34.029600242027982     
   4.8099998784891795E-002   1.6481133303960083        34.028620242004457     
   4.8199998782365583E-002   1.6515161434356584        34.027640241980933     
   4.8299998779839370E-002   1.6549188584753058        34.026660241957408     
   4.8399998777313158E-002   1.6583214755149505        34.025680241933884     
   4.8499998774786945E-002   1.6617239945545923        34.024700241910359     
   4.8599998772260733E-002   1.6651264155942314        34.023720241886835     
   4.8699998769734520E-002   1.6685287386338676        34.022740241863310     
   4.8799998767208308E-002   1.6719309636735009        34.021760241839786     
   4.8899998764682095E-002   1.6753330907131314        34.020780241816261     
   4.8999998762155883E-002   1.6787351197527591        34.019800241792737     
   4.9099998759629671E-002   1.6821370507923841        34.018820241769212     
   4.9199998757103458E-002   1.6855388838320062        34.017840241745688     
   4.9299998754577246E-002   1.6889406188716256        34.016860241722163     
   4.9399998752051033E-002   1.6923422559112422        34.015880241698639     
   4.9499998749524821E-002   1.6957437949508560        34.014900241675115     
   4.9599998746998608E-002   1.6991452359904671        34.013920241651590     
   4.9699998744472396E-002   1.7025465790300753        34.012940241628066     
   4.9799998741946183E-002   1.7059478240696808        34.011960241604541     
   4.9899998739419971E-002   1.7093489711092835        34.010980241581017     
   4.9999998736893758E-002   1.7127500201488834        34.010000241557492     
   5.0099998734367546E-002   1.7161509711884804        34.009020241533968     
   5.0199998731841333E-002   1.7195518242280745        34.008040241510443     
   5.0299998729315121E-002   1.7229525792676659        34.007060241486919     
   5.0399998726788908E-002   1.7263532363072545        34.006080241463394     
   5.0499998724262696E-002   1.7297537953468403        34.005100241439870     
   5.0599998721736483E-002   1.7331542563864233        34.004120241416345     
   5.0699998719210271E-002   1.7365546194260035        34.003140241392821     
   5.0799998716684058E-002   1.7399548844655810        34.002160241369296     
   5.0899998714157846E-002   1.7433550515051557        34.001180241345772     
   5.0999998711631633E-002   1.7467551205447276        34.000200241322247     
   5.1099998709105421E-002   1.7501550915842967        33.999220241298723     
   5.1199998706579208E-002   1.7535549646238631        33.998240241275198     
   5.1299998704052996E-002   1.7569547396634264        33.997260241251674     
   5.1399998701526783E-002   1.7603544167029870        33.996280241228149     
   5.1499998699000571E-002   1.7637539957425448        33.995300241204625     
   5.1599998696474358E-002   1.7671534767820998        33.994320241181100     
   5.1699998693948146E-002   1.7705528598216520        33.993340241157576     
   5.1799998691421933E-002   1.7739521448612015        33.992360241134051     
   5.1899998688895721E-002   1.7773513319007481        33.991380241110527     
   5.1999998686369509E-002   1.7807504209402920        33.990400241087002     
   5.2099998683843296E-002   1.7841494119798331        33.989420241063478     
   5.2199998681317084E-002   1.7875483050193715        33.988440241039953     
   5.2299998678790871E-002   1.7909471000589070        33.987460241016429     
   5.2399998676264659E-002   1.7943457970984398        33.986480240992904     
   5.2499998673738446E-002   1.7977443961379698        33.985500240969380     
   5.2599998671212234E-002   1.8011428971774968        33.984520240945855     
   5.2699998668686021E-002   1.8045413002170210        33.983540240922331     
   5.2799998666159809E-002   1.8079396052565424        33.982560240898806     
   5.2899998663633596E-002   1.8113378122960611        33.981580240875282     
   5.2999998661107384E-002   1.8147359213355769        33.980600240851757     
   5.3099998658581171E-002   1.8181339323750900        33.979620240828233     
   5.3199998656054959E-002   1.8215318454146003        33.978640240804708     
   5.3299998653528746E-002   1.8249296604541079        33.977660240781184     
   5.3399998651002534E-002   1.8283273774936126        33.976680240757659     
   5.3499998648476321E-002   1.8317249965331146        33.975700240734135     
   5.3599998645950109E-002   1.8351225175726138        33.974720240710610     
   5.3699998643423896E-002   1.8385199406121102        33.973740240687086     
   5.3799998640897684E-002   1.8419172656516036        33.972760240663561     
   5.3899998638371471E-002   1.8453144926910943        33.971780240640037     
   5.3999998635845259E-002   1.8487116217305821        33.970800240616512     
   5.4099998633319046E-002   1.8521086527700672        33.969820240592988     
   5.4199998630792834E-002   1.8555055858095495        33.968840240569463     
   5.4299998628266621E-002   1.8589024208490290        33.967860240545939     
   5.4399998625740409E-002   1.8622991578885058        33.966880240522414     
   5.4499998623214196E-002   1.8656957969279797        33.965900240498890     
   5.4599998620687984E-002   1.8690923379674509        33.964920240475365     
   5.4699998618161771E-002   1.8724887810069193        33.963940240451841     
   5.4799998615635559E-002   1.8758851260463849        33.962960240428316     
   5.4899998613109346E-002   1.8792813730858478        33.961980240404792     
   5.4999998610583134E-002   1.8826775221253076        33.961000240381267     
   5.5099998608056922E-002   1.8860735731647646        33.960020240357743     
   5.5199998605530709E-002   1.8894695262042189        33.959040240334218     
   5.5299998603004497E-002   1.8928653812436704        33.958060240310694     
   5.5399998600478284E-002   1.8962611382831192        33.957080240287169     
   5.5499998597952072E-002   1.8996567973225651        33.956100240263645     
   5.5599998595425859E-002   1.9030523583620083        33.955120240240120     
   5.5699998592899647E-002   1.9064478214014486        33.954140240216596     
   5.5799998590373434E-002   1.9098431864408862        33.953160240193071     
   5.5899998587847222E-002   1.9132384534803211        33.952180240169547     
   5.5999998585321009E-002   1.9166336225197531        33.951200240146022     
   5.6099998582794797E-002   1.9200286935591824        33.950220240122498     
   5.6199998580268584E-002   1.9234236665986089        33.949240240098973     
   5.6299998577742372E-002   1.9268185416380323        33.948260240075449     
   5.6399998575216159E-002   1.9302133186774530        33.947280240051924     
   5.6499998572689947E-002   1.9336079977168710        33.946300240028400     
   5.6599998570163734E-002   1.9370025787562861        33.945320240004875     
   5.6699998567637522E-002   1.9403970617956985        33.944340239981351     
   5.6799998565111309E-002   1.9437914468351081        33.943360239957826     
   5.6899998562585097E-002   1.9471857338745149        33.942380239934302     
   5.6999998560058884E-002   1.9505799229139189        33.941400239910777     
   5.7099998557532672E-002   1.9539740139533202        33.940420239887253     
   5.7199998555006459E-002   1.9573680069927186        33.939440239863728     
   5.7299998552480247E-002   1.9607619020321143        33.938460239840204     
   5.7399998549954034E-002   1.9641556990715072        33.937480239816679     
   5.7499998547427822E-002   1.9675493981108971        33.936500239793155     
   5.7599998544901609E-002   1.9709429991502843        33.935520239769630     
   5.7699998542375397E-002   1.9743365021896686        33.934540239746106     
   5.7799998539849184E-002   1.9777299072290502        33.933560239722581     
   5.7899998537322972E-002   1.9811232142684290        33.932580239699057     
   5.7999998534796759E-002   1.9845164233078050        33.931600239675532     
   5.8099998532270547E-002   1.9879095343471782        33.930620239652008     
   5.8199998529744335E-002   1.9913025473865487        33.929640239628483     
   5.8299998527218122E-002   1.9946954624259163        33.928660239604959     
   5.8399998524691910E-002   1.9980882794652812        33.927680239581434     
   5.8499998522165697E-002   2.0014809985046433        33.926700239557910     
   5.8599998519639485E-002   2.0048736195440027        33.925720239534385     
   5.8699998517113272E-002   2.0082661425833592        33.924740239510861     
   5.8799998514587060E-002   2.0116585676227130        33.923760239487336     
   5.8899998512060847E-002   2.0150508946620640        33.922780239463812     
   5.8999998509534635E-002   2.0184431237014122        33.921800239440287     
   5.9099998507008422E-002   2.0218352547407576        33.920820239416763     
   5.9199998504482210E-002   2.0252272877801003        33.919840239393238     
   5.9299998501955997E-002   2.0286192228194402        33.918860239369714     
   5.9399998499429785E-002   2.0320110598587768        33.917880239346189     
   5.9499998496903572E-002   2.0354027988981107        33.916900239322665     
   5.9599998494377360E-002   2.0387944399374418        33.915920239299140     
   5.9699998491851147E-002   2.0421859829767701        33.914940239275616     
   5.9799998489324935E-002   2.0455774280160957        33.913960239252091     
   5.9899998486798722E-002   2.0489687750554184        33.912980239228567     
   5.9999998484272510E-002   2.0523600240947384        33.912000239205042     
   6.0099998481746297E-002   2.0557511751340556        33.911020239181518     
   6.0199998479220085E-002   2.0591422281733700        33.910040239157993     
   6.0299998476693872E-002   2.0625331832126816        33.909060239134469     
   6.0399998474167660E-002   2.0659240402519905        33.908080239110944     
   6.0499998471641447E-002   2.0693147992912966        33.907100239087420     
   6.0599998469115235E-002   2.0727054603305999        33.906120239063895     
   6.0699998466589022E-002   2.0760960233699004        33.905140239040371     
   6.0799998464062810E-002   2.0794864884091981        33.904160239016846     
   6.0899998461536597E-002   2.0828768554484931        33.903180238993322     
   6.0999998459010385E-002   2.0862671244877853        33.902200238969797     
   6.1099998456484172E-002   2.0896572955270747        33.901220238946273     
   6.1199998453957960E-002   2.0930473685663613        33.900240238922748     
   6.1299998451431748E-002   2.0964373436056452        33.899260238899224     
   6.1399998448905535E-002   2.0998272206449262        33.898280238875699     
   6.1499998446379323E-002   2.1032169996842045        33.897300238852175     
   6.1599998443853110E-002   2.1066066807234800        33.896320238828650     
   6.1699998441326898E-002   2.1099962637627527        33.895340238805126     
   6.1799998438800685E-002   2.1133857488020227        33.894360238781601     
   6.1899998436274473E-002   2.1167751358412894        33.893380238758077     
   6.1999998433748260E-002   2.1201644248805533        33.892400238734552     
   6.2099998431222048E-002   2.1235536159198145        33.891420238711028     
   6.2199998428695835E-002   2.1269427089590729        33.890440238687503     
   6.2299998426169623E-002   2.1303317039983285        33.889460238663979     
   6.2399998423643410E-002   2.1337206010375813        33.888480238640454     
   6.2499998421117198E-002   2.1371094000768314        33.887500238616930     
   6.2599998418590985E-002   2.1404981011160786        33.886520238593405     
   6.2699998416064773E-002   2.1438867041553231        33.885540238569881     
   6.2799998413538560E-002   2.1472752091945648        33.884560238546356     
   6.2899998411012348E-002   2.1506636162338038        33.883580238522832     
   6.2999998408486135E-002   2.1540519252730399        33.882600238499307     
   6.3099998405959923E-002   2.1574401363122733        33.881620238475783     
   6.3199998403433710E-002   2.1608282493515039        33.880640238452258     
   6.3299998400907498E-002   2.1642162643907317        33.879660238428734     
   6.3399998398381285E-002   2.1676041814299567        33.878680238405209     
   6.3499998395855073E-002   2.1709920004691790        33.877700238381685     
   6.3599998393328860E-002   2.1743797215083984        33.876720238358160     
   6.3699998390802648E-002   2.1777673445476151        33.875740238334636     
   6.3799998388276435E-002   2.1811548695868290        33.874760238311111     
   6.3899998385750223E-002   2.1845422966260402        33.873780238287587     
   6.3999998383224010E-002   2.1879296256652485        33.872800238264063     
   6.4099998380697798E-002   2.1913168567044541        33.871820238240538     
   6.4199998378171586E-002   2.1947039897436569        33.870840238217014     
   6.4299998375645373E-002   2.1980910247828565        33.869860238193489     
   6.4399998373119161E-002   2.2014779618220532        33.868880238169965     
   6.4499998370592948E-002   2.2048648008612473        33.867900238146440     
   6.4599998368066736E-002   2.2082515419004385        33.866920238122916     
   6.4699998365540523E-002   2.2116381849396269        33.865940238099391     
   6.4799998363014311E-002   2.2150247299788126        33.864960238075867     
   6.4899998360488098E-002   2.2184111770179955        33.863980238052342     
   6.4999998357961886E-002   2.2217975260571756        33.863000238028818     
   6.5099998355435673E-002   2.2251837770963530        33.862020238005293     
   6.5199998352909461E-002   2.2285699301355275        33.861040237981769     
   6.5299998350383248E-002   2.2319559851746993        33.860060237958244     
   6.5399998347857036E-002   2.2353419422138683        33.859080237934720     
   6.5499998345330823E-002   2.2387278012530345        33.858100237911195     
   6.5599998342804611E-002   2.2421135622921979        33.857120237887671     
   6.5699998340278398E-002   2.2454992253313586        33.856140237864146     
   6.5799998337752186E-002   2.2488847903705165        33.855160237840622     
   6.5899998335225973E-002   2.2522702574096716        33.854180237817097     
   6.5999998332699761E-002   2.2556556264488239        33.853200237793573     
   6.6099998330173548E-002   2.2590408974879734        33.852220237770048     
   6.6199998327647336E-002   2.2624260705271202        33.851240237746524     
   6.6299998325121123E-002   2.2658111455662642        33.850260237722999     
   6.6399998322594911E-002   2.2691961226054054        33.849280237699475     
   6.6499998320068698E-002   2.2725810016445438        33.848300237675950     
   6.6599998317542486E-002   2.2759657826836794        33.847320237652426     
   6.6699998315016273E-002   2.2793504657228123        33.846340237628901     
   6.6799998312490061E-002   2.2827350507619419        33.845360237605377     
   6.6899998309963848E-002   2.2861195378010688        33.844380237581852     
   6.6999998307437636E-002   2.2895039268401929        33.843400237558328     
   6.7099998304911423E-002   2.2928882178793142        33.842420237534803     
   6.7199998302385211E-002   2.2962724109184327        33.841440237511279     
   6.7299998299858999E-002   2.2996565059575484        33.840460237487754     
   6.7399998297332786E-002   2.3030405029966614        33.839480237464230     
   6.7499998294806574E-002   2.3064244020357716        33.838500237440705     
   6.7599998292280361E-002   2.3098082030748790        33.837520237417181     
   6.7699998289754149E-002   2.3131919061139836        33.836540237393656     
   6.7799998287227936E-002   2.3165755111530855        33.835560237370132     
   6.7899998284701724E-002   2.3199590181921845        33.834580237346607     
   6.7999998282175511E-002   2.3233424272312808        33.833600237323083     
   6.8099998279649299E-002   2.3267257382703743        33.832620237299558     
   6.8199998277123086E-002   2.3301089513094650        33.831640237276034     
   6.8299998274596874E-002   2.3334920663485530        33.830660237252509     
   6.8399998272070661E-002   2.3368750833876382        33.829680237228985     
   6.8499998269544449E-002   2.3402580024267206        33.828700237205460     
   6.8599998267018236E-002   2.3436408234658002        33.827720237181936     
   6.8699998264492024E-002   2.3470235465048770        33.826740237158411     
   6.8799998261965811E-002   2.3504061715439510        33.825760237134887     
   6.8899998259439599E-002   2.3537886985830223        33.824780237111362     
   6.8999998256913386E-002   2.3571711276220908        33.823800237087838     
   6.9099998254387174E-002   2.3605534586611565        33.822820237064313     
   6.9199998251860961E-002   2.3639356917002194        33.821840237040789     
   6.9299998249334749E-002   2.3673178267392792        33.820860237017264     
   6.9399998246808536E-002   2.3706998637783361        33.819880236993740     
   6.9499998244282324E-002   2.3740818028173902        33.818900236970215     
   6.9599998241756111E-002   2.3774636438564416        33.817920236946691     
   6.9699998239229899E-002   2.3808453868954902        33.816940236923166     
   6.9799998236703686E-002   2.3842270319345360        33.815960236899642     
   6.9899998234177474E-002   2.3876085789735790        33.814980236876117     
   6.9999998231651261E-002   2.3909900280126193        33.814000236852593     
   7.0099998229125049E-002   2.3943713790516568        33.813020236829068     
   7.0199998226598836E-002   2.3977526320906914        33.812040236805544     
   7.0299998224072624E-002   2.4011337871297234        33.811060236782019     
   7.0399998221546412E-002   2.4045148441687525        33.810080236758495     
   7.0499998219020199E-002   2.4078958032077789        33.809100236734970     
   7.0599998216493987E-002   2.4112766642468024        33.808120236711446     
   7.0699998213967774E-002   2.4146574272858232        33.807140236687921     
   7.0799998211441562E-002   2.4180380923248412        33.806160236664397     
   7.0899998208915349E-002   2.4214186593638565        33.805180236640872     
   7.0999998206389137E-002   2.4247991284028689        33.804200236617348     
   7.1099998203862924E-002   2.4281794994418786        33.803220236593823     
   7.1199998201336712E-002   2.4315597724808855        33.802240236570299     
   7.1299998198810499E-002   2.4349399475198896        33.801260236546774     
   7.1399998196284287E-002   2.4383200245588910        33.800280236523250     
   7.1499998193758074E-002   2.4417000035978895        33.799300236499725     
   7.1599998191231862E-002   2.4450798846368853        33.798320236476201     
   7.1699998188705649E-002   2.4484596676758783        33.797340236452676     
   7.1799998186179437E-002   2.4518393527148681        33.796360236429152     
   7.1899998183653224E-002   2.4552189397538551        33.795380236405627     
   7.1999998181127012E-002   2.4585984287928393        33.794400236382103     
   7.2099998178600799E-002   2.4619778198318207        33.793420236358578     
   7.2199998176074587E-002   2.4653571128707994        33.792440236335054     
   7.2299998173548374E-002   2.4687363079097753        33.791460236311529     
   7.2399998171022162E-002   2.4721154049487484        33.790480236288005     
   7.2499998168495949E-002   2.4754944039877187        33.789500236264480     
   7.2599998165969737E-002   2.4788733050266862        33.788520236240956     
   7.2699998163443524E-002   2.4822521080656510        33.787540236217431     
   7.2799998160917312E-002   2.4856308131046130        33.786560236193907     
   7.2899998158391099E-002   2.4890094201435722        33.785580236170382     
   7.2999998155864887E-002   2.4923879291825286        33.784600236146858     
   7.3099998153338674E-002   2.4957663402214822        33.783620236123333     
   7.3199998150812462E-002   2.4991446532604331        33.782640236099809     
   7.3299998148286249E-002   2.5025228682993812        33.781660236076284     
   7.3399998145760037E-002   2.5059009853383265        33.780680236052760     
   7.3499998143233825E-002   2.5092790043772690        33.779700236029235     
   7.3599998140707612E-002   2.5126569254162088        33.778720236005711     
   7.3699998138181400E-002   2.5160347484551457        33.777740235982186     
   7.3799998135655187E-002   2.5194124734940799        33.776760235958662     
   7.3899998133128975E-002   2.5227901005330113        33.775780235935137     
   7.3999998130602762E-002   2.5261676295719400        33.774800235911613     
   7.4099998128076550E-002   2.5295450606108658        33.773820235888088     
   7.4199998125550337E-002   2.5329223936497889        33.772840235864564     
   7.4299998123024125E-002   2.5362996286887087        33.771860235841039     
   7.4399998120497912E-002   2.5396767657276258        33.770880235817515     
   7.4499998117971700E-002   2.5430538047665401        33.769900235793990     
   7.4599998115445487E-002   2.5464307458054516        33.768920235770466     
   7.4699998112919275E-002   2.5498075888443603        33.767940235746941     
   7.4799998110393062E-002   2.5531843338832663        33.766960235723417     
   7.4899998107866850E-002   2.5565609809221694        33.765980235699892     
   7.4999998105340637E-002   2.5599375299610698        33.765000235676368     
   7.5099998102814425E-002   2.5633139809999674        33.764020235652843     
   7.5199998100288212E-002   2.5666903340388623        33.763040235629319     
   7.5299998097762000E-002   2.5700665890777543        33.762060235605794     
   7.5399998095235787E-002   2.5734427461166436        33.761080235582270     
   7.5499998092709575E-002   2.5768188051555301        33.760100235558745     
   7.5599998090183362E-002   2.5801947661944138        33.759120235535221     
   7.5699998087657150E-002   2.5835706292332947        33.758140235511696     
   7.5799998085130937E-002   2.5869463942721729        33.757160235488172     
   7.5899998082604725E-002   2.5903220613110483        33.756180235464647     
   7.5999998080078512E-002   2.5936976303499208        33.755200235441123     
   7.6099998077552300E-002   2.5970731013887907        33.754220235417598     
   7.6199998075026087E-002   2.6004484744276577        33.753240235394074     
   7.6299998072499875E-002   2.6038237494665220        33.752260235370549     
   7.6399998069973662E-002   2.6071989265053834        33.751280235347025     
   7.6499998067447450E-002   2.6105740055442421        33.750300235323500     
   7.6599998064921238E-002   2.6139489865830980        33.749320235299976     
   7.6699998062395025E-002   2.6173238696219507        33.748340235276451     
   7.6799998059868813E-002   2.6206986546608007        33.747360235252927     
   7.6899998057342600E-002   2.6240733416996478        33.746380235229402     
   7.6999998054816388E-002   2.6274479307384921        33.745400235205878     
   7.7099998052290175E-002   2.6308224217773337        33.744420235182353     
   7.7199998049763963E-002   2.6341968148161725        33.743440235158829     
   7.7299998047237750E-002   2.6375711098550085        33.742460235135304     
   7.7399998044711538E-002   2.6409453068938418        33.741480235111780     
   7.7499998042185325E-002   2.6443194059326722        33.740500235088255     
   7.7599998039659113E-002   2.6476934069714999        33.739520235064731     
   7.7699998037132900E-002   2.6510673100103248        33.738540235041206     
   7.7799998034606688E-002   2.6544411150491469        33.737560235017682     
   7.7899998032080475E-002   2.6578148220879663        33.736580234994157     
   7.7999998029554263E-002   2.6611884311267828        33.735600234970633     
   7.8099998027028050E-002   2.6645619421655966        33.734620234947108     
   7.8199998024501838E-002   2.6679353552044076        33.733640234923584     
   7.8299998021975625E-002   2.6713086702432158        33.732660234900059     
   7.8399998019449413E-002   2.6746818872820213        33.731680234876535     
   7.8499998016923200E-002   2.6780550063208239        33.730700234853010     
   7.8599998014396988E-002   2.6814280273596238        33.729720234829486     
   7.8699998011870775E-002   2.6848009503984209        33.728740234805962     
   7.8799998009344563E-002   2.6881737754372153        33.727760234782437     
   7.8899998006818350E-002   2.6915465024760068        33.726780234758913     
   7.8999998004292138E-002   2.6949191315147956        33.725800234735388     
   7.9099998001765925E-002   2.6982916625535815        33.724820234711864     
   7.9199997999239713E-002   2.7016640955923643        33.723840234688339     
   7.9299997996713500E-002   2.7050364306311443        33.722860234664815     
   7.9399997994187288E-002   2.7084086676699215        33.721880234641290     
   7.9499997991661076E-002   2.7117808067086959        33.720900234617766     
   7.9599997989134863E-002   2.7151528477474676        33.719920234594241     
   7.9699997986608651E-002   2.7185247907862364        33.718940234570717     
   7.9799997984082438E-002   2.7218966358250025        33.717960234547192     
   7.9899997981556226E-002   2.7252683828637658        33.716980234523668     
   7.9999997979030013E-002   2.7286400319025264        33.716000234500143     
   8.0099997976503801E-002   2.7320115829412841        33.715020234476619     
   8.0199997973977588E-002   2.7353830359800391        33.714040234453094     
   8.0299997971451376E-002   2.7387543910187913        33.713060234429570     
   8.0399997968925163E-002   2.7421256480575407        33.712080234406045     
   8.0499997966398951E-002   2.7454968070962873        33.711100234382521     
   8.0599997963872738E-002   2.7488678681350311        33.710120234358996     
   8.0699997961346526E-002   2.7522388311737722        33.709140234335472     
   8.0799997958820313E-002   2.7556096962125105        33.708160234311947     
   8.0899997956294101E-002   2.7589804632512460        33.707180234288423     
   8.0999997953767888E-002   2.7623511322899788        33.706200234264898     
   8.1099997951241676E-002   2.7657217033287087        33.705220234241374     
   8.1199997948715463E-002   2.7690921763674359        33.704240234217849     
   8.1299997946189251E-002   2.7724625514061603        33.703260234194325     
   8.1399997943663038E-002   2.7758328284448819        33.702280234170800     
   8.1499997941136826E-002   2.7792030074836007        33.701300234147276     
   8.1599997938610613E-002   2.7825730885223168        33.700320234123751     
   8.1699997936084401E-002   2.7859430715610296        33.699340234100227     
   8.1799997933558188E-002   2.7893129565997397        33.698360234076702     
   8.1899997931031976E-002   2.7926827436384469        33.697380234053178     
   8.1999997928505763E-002   2.7960524326771514        33.696400234029653     
   8.2099997925979551E-002   2.7994220237158531        33.695420234006129     
   8.2199997923453338E-002   2.8027915167545521        33.694440233982604     
   8.2299997920927126E-002   2.8061609117932482        33.693460233959080     
   8.2399997918400913E-002   2.8095302088319416        33.692480233935555     
   8.2499997915874701E-002   2.8128994078706322        33.691500233912031     
   8.2599997913348489E-002   2.8162685089093200        33.690520233888506     
   8.2699997910822276E-002   2.8196375119480050        33.689540233864982     
   8.2799997908296064E-002   2.8230064169866873        33.688560233841457     
   8.2899997905769851E-002   2.8263752240253668        33.687580233817933     
   8.2999997903243639E-002   2.8297439330640435        33.686600233794408     
   8.3099997900717426E-002   2.8331125441027174        33.685620233770884     
   8.3199997898191214E-002   2.8364810571413885        33.684640233747359     
   8.3299997895665001E-002   2.8398494721800569        33.683660233723835     
   8.3399997893138789E-002   2.8432177892187225        33.682680233700310     
   8.3499997890612576E-002   2.8465860082573853        33.681700233676786     
   8.3599997888086364E-002   2.8499541292960453        33.680720233653261     
   8.3699997885560151E-002   2.8533221523347025        33.679740233629737     
   8.3799997883033939E-002   2.8566900773733570        33.678760233606212     
   8.3899997880507726E-002   2.8600579044120087        33.677780233582688     
   8.3999997877981514E-002   2.8634256334506576        33.676800233559163     
   8.4099997875455301E-002   2.8667932644893037        33.675820233535639     
   8.4199997872929089E-002   2.8701607975279466        33.674840233512114     
   8.4299997870402876E-002   2.8735282325665867        33.673860233488590     
   8.4399997867876664E-002   2.8768955696052241        33.672880233465065     
   8.4499997865350451E-002   2.8802628086438586        33.671900233441541     
   8.4599997862824239E-002   2.8836299496824904        33.670920233418016     
   8.4699997860298026E-002   2.8869969927211194        33.669940233394492     
   8.4799997857771814E-002   2.8903639377597456        33.668960233370967     
   8.4899997855245601E-002   2.8937307847983691        33.667980233347443     
   8.4999997852719389E-002   2.8970975338369898        33.667000233323918     
   8.5099997850193176E-002   2.9004641848756076        33.666020233300394     
   8.5199997847666964E-002   2.9038307379142227        33.665040233276869     
   8.5299997845140751E-002   2.9071971929528351        33.664060233253345     
   8.5399997842614539E-002   2.9105635499914446        33.663080233229820     
   8.5499997840088326E-002   2.9139298090300514        33.662100233206296     
   8.5599997837562114E-002   2.9172959700686554        33.661120233182771     
   8.5699997835035902E-002   2.9206620331072566        33.660140233159247     
   8.5799997832509689E-002   2.9240279981458550        33.659160233135722     
   8.5899997829983477E-002   2.9273938651844507        33.658180233112198     
   8.5999997827457264E-002   2.9307596342230435        33.657200233088673     
   8.6099997824931052E-002   2.9341253052616336        33.656220233065149     
   8.6199997822404839E-002   2.9374908783002209        33.655240233041624     
   8.6299997819878627E-002   2.9408563533388055        33.654260233018100     
   8.6399997817352414E-002   2.9442217303773872        33.653280232994575     
   8.6499997814826202E-002   2.9475870094159662        33.652300232971051     
   8.6599997812299989E-002   2.9509521904545424        33.651320232947526     
   8.6699997809773777E-002   2.9543172734931153        33.650340232924002     
   8.6799997807247564E-002   2.9576822585316855        33.649360232900477     
   8.6899997804721352E-002   2.9610471455702529        33.648380232876953     
   8.6999997802195139E-002   2.9644119346088176        33.647400232853428     
   8.7099997799668927E-002   2.9677766256473794        33.646420232829904     
   8.7199997797142714E-002   2.9711412186859385        33.645440232806379     
   8.7299997794616502E-002   2.9745057137244948        33.644460232782855     
   8.7399997792090289E-002   2.9778701107630483        33.643480232759330     
   8.7499997789564077E-002   2.9812344098015990        33.642500232735806     
   8.7599997787037864E-002   2.9845986108401470        33.641520232712281     
   8.7699997784511652E-002   2.9879627138786922        33.640540232688757     
   8.7799997781985439E-002   2.9913267189172346        33.639560232665232     
   8.7899997779459227E-002   2.9946906259557742        33.638580232641708     
   8.7999997776933014E-002   2.9980544349943110        33.637600232618183     
   8.8099997774406802E-002   3.0014181460328451        33.636620232594659     
   8.8199997771880589E-002   3.0047817590713763        33.635640232571134     
   8.8299997769354377E-002   3.0081452741099048        33.634660232547610     
   8.8399997766828164E-002   3.0115086911484306        33.633680232524085     
   8.8499997764301952E-002   3.0148720101869535        33.632700232500561     
   8.8599997761775739E-002   3.0182352312254737        33.631720232477036     
   8.8699997759249527E-002   3.0215983542639910        33.630740232453512     
   8.8799997756723315E-002   3.0249613793025056        33.629760232429987     
   8.8899997754197102E-002   3.0283243063410175        33.628780232406463     
   8.8999997751670890E-002   3.0316871353795265        33.627800232382938     
   8.9099997749144677E-002   3.0350498664180323        33.626820232359414     
   8.9199997746618465E-002   3.0384124994565354        33.625840232335889     
   8.9299997744092252E-002   3.0417750344950356        33.624860232312365     
   8.9399997741566040E-002   3.0451374715335331        33.623880232288840     
   8.9499997739039827E-002   3.0484998105720278        33.622900232265316     
   8.9599997736513615E-002   3.0518620516105197        33.621920232241791     
   8.9699997733987402E-002   3.0552241946490089        33.620940232218267     
   8.9799997731461190E-002   3.0585862396874952        33.619960232194742     
   8.9899997728934977E-002   3.0619481867259788        33.618980232171218     
   8.9999997726408765E-002   3.0653100357644596        33.618000232147693     
   9.0099997723882552E-002   3.0686717868029376        33.617020232124169     
   9.0199997721356340E-002   3.0720334398414129        33.616040232100644     
   9.0299997718830127E-002   3.0753949948798853        33.615060232077120     
   9.0399997716303915E-002   3.0787564519183550        33.614080232053595     
   9.0499997713777702E-002   3.0821178109568219        33.613100232030071     
   9.0599997711251490E-002   3.0854790719952860        33.612120232006546     
   9.0699997708725277E-002   3.0888402350337474        33.611140231983022     
   9.0799997706199065E-002   3.0922013000722059        33.610160231959497     
   9.0899997703672852E-002   3.0955622671106617        33.609180231935973     
   9.0999997701146640E-002   3.0989231361491147        33.608200231912448     
   9.1099997698620427E-002   3.1022839071875650        33.607220231888924     
   9.1199997696094215E-002   3.1056445802260124        33.606240231865399     
   9.1299997693568002E-002   3.1090051552644571        33.605260231841875     
   9.1399997691041790E-002   3.1123656323028990        33.604280231818350     
   9.1499997688515577E-002   3.1157260113413381        33.603300231794826     
   9.1599997685989365E-002   3.1190862923797740        33.602320231771301     
   9.1699997683463152E-002   3.1224464754182071        33.601340231747777     
   9.1799997680936940E-002   3.1258065604566374        33.600360231724252     
   9.1899997678410728E-002   3.1291665474950650        33.599380231700728     
   9.1999997675884515E-002   3.1325264365334897        33.598400231677203     
   9.2099997673358303E-002   3.1358862275719117        33.597420231653679     
   9.2199997670832090E-002   3.1392459206103309        33.596440231630154     
   9.2299997668305878E-002   3.1426055156487473        33.595460231606630     
   9.2399997665779665E-002   3.1459650126871610        33.594480231583105     
   9.2499997663253453E-002   3.1493244117255719        33.593500231559581     
   9.2599997660727240E-002   3.1526837127639800        33.592520231536056     
   9.2699997658201028E-002   3.1560429158023853        33.591540231512532     
   9.2799997655674815E-002   3.1594020208407878        33.590560231489007     
   9.2899997653148603E-002   3.1627610278791876        33.589580231465483     
   9.2999997650622390E-002   3.1661199369175845        33.588600231441958     
   9.3099997648096178E-002   3.1694787479559787        33.587620231418434     
   9.3199997645569965E-002   3.1728374609943701        33.586640231394910     
   9.3299997643043753E-002   3.1761960760327588        33.585660231371385     
   9.3399997640517540E-002   3.1795545930711446        33.584680231347861     
   9.3499997637991328E-002   3.1829130121095277        33.583700231324336     
   9.3599997635465115E-002   3.1862713331479080        33.582720231300812     
   9.3699997632938903E-002   3.1896295561862855        33.581740231277287     
   9.3799997630412690E-002   3.1929876812246603        33.580760231253763     
   9.3899997627886478E-002   3.1963457082630322        33.579780231230238     
   9.3999997625360265E-002   3.1997036373014014        33.578800231206714     
   9.4099997622834053E-002   3.2030614683397673        33.577820231183189     
   9.4199997620307840E-002   3.2064192013781305        33.576840231159665     
   9.4299997617781628E-002   3.2097768364164909        33.575860231136140     
   9.4399997615255415E-002   3.2131343734548485        33.574880231112616     
   9.4499997612729203E-002   3.2164918124932034        33.573900231089091     
   9.4599997610202990E-002   3.2198491535315554        33.572920231065567     
   9.4699997607676778E-002   3.2232063965699047        33.571940231042042     
   9.4799997605150566E-002   3.2265635416082512        33.570960231018518     
   9.4899997602624353E-002   3.2299205886465949        33.569980230994993     
   9.4999997600098141E-002   3.2332775376849359        33.569000230971469     
   9.5099997597571928E-002   3.2366343887232740        33.568020230947944     
   9.5199997595045716E-002   3.2399911417616094        33.567040230924420     
   9.5299997592519503E-002   3.2433477967999420        33.566060230900895     
   9.5399997589993291E-002   3.2467043538382718        33.565080230877371     
   9.5499997587467078E-002   3.2500608128765989        33.564100230853846     
   9.5599997584940866E-002   3.2534171739149231        33.563120230830322     
   9.5699997582414653E-002   3.2567734369532446        33.562140230806797     
   9.5799997579888441E-002   3.2601296019915633        33.561160230783273     
   9.5899997577362228E-002   3.2634856690298792        33.560180230759748     
   9.5999997574836016E-002   3.2668416380681924        33.559200230736224     
   9.6099997572309803E-002   3.2701975091065028        33.558220230712699     
   9.6199997569783591E-002   3.2735532821448103        33.557240230689175     
   9.6299997567257378E-002   3.2769089571831151        33.556260230665650     
   9.6399997564731166E-002   3.2802645342214172        33.555280230642126     
   9.6499997562204953E-002   3.2836200132597164        33.554300230618601     
   9.6599997559678741E-002   3.2869753942980124        33.553320230595077     
   9.6699997557152528E-002   3.2903306773363057        33.552340230571552     
   9.6799997554626316E-002   3.2936858623745962        33.551360230548028     
   9.6899997552100103E-002   3.2970409494128838        33.550380230524503     
   9.6999997549573891E-002   3.3003959384511687        33.549400230500979     
   9.7099997547047678E-002   3.3037508294894509        33.548420230477454     
   9.7199997544521466E-002   3.3071056225277302        33.547440230453930     
   9.7299997541995253E-002   3.3104603175660068        33.546460230430405     
   9.7399997539469041E-002   3.3138149146042806        33.545480230406881     
   9.7499997536942828E-002   3.3171694136425516        33.544500230383356     
   9.7599997534416616E-002   3.3205238146808198        33.543520230359832     
   9.7699997531890403E-002   3.3238781177190853        33.542540230336307     
   9.7799997529364191E-002   3.3272323227573479        33.541560230312783     
   9.7899997526837979E-002   3.3305864297956078        33.540580230289258     
   9.7999997524311766E-002   3.3339404388338649        33.539600230265734     
   9.8099997521785554E-002   3.3372943498721193        33.538620230242209     
   9.8199997519259341E-002   3.3406481629103708        33.537640230218685     
   9.8299997516733129E-002   3.3440018779486196        33.536660230195160     
   9.8399997514206916E-002   3.3473554949868656        33.535680230171636     
   9.8499997511680704E-002   3.3507090140251088        33.534700230148111     
   9.8599997509154491E-002   3.3540624350633492        33.533720230124587     
   9.8699997506628279E-002   3.3574157581015869        33.532740230101062     
   9.8799997504102066E-002   3.3607689831398218        33.531760230077538     
   9.8899997501575854E-002   3.3641221101780538        33.530780230054013     
   9.8999997499049641E-002   3.3674751392162832        33.529800230030489     
   9.9099997496523429E-002   3.3708280702545093        33.528820230006964     
   9.9199997493997216E-002   3.3741809032927326        33.527840229983440     
   9.9299997491471004E-002   3.3775336383309531        33.526860229959915     
   9.9399997488944791E-002   3.3808862753691709        33.525880229936391     
   9.9499997486418579E-002   3.3842388144073858        33.524900229912866     
   9.9599997483892366E-002   3.3875912554455980        33.523920229889342     
   9.9699997481366154E-002   3.3909435984838074        33.522940229865817     
   9.9799997478839941E-002   3.3942958435220141        33.521960229842293     
   9.9899997476313729E-002   3.3976479905602179        33.520980229818768     
   9.9999997473787516E-002   3.4010000395984190        33.520000229795244     
  0.10009999747126130        3.4043519906366173        33.519020229771719     
  0.10019999746873509        3.4077038436748128        33.518040229748195     
  0.10029999746620888        3.4110555987130056        33.517060229724670     
  0.10039999746368267        3.4144072557511955        33.516080229701146     
  0.10049999746115645        3.4177588147893827        33.515100229677621     
  0.10059999745863024        3.4211102758275671        33.514120229654097     
  0.10069999745610403        3.4244616388657487        33.513140229630572     
  0.10079999745357782        3.4278129039039276        33.512160229607048     
  0.10089999745105160        3.4311640709421036        33.511180229583523     
  0.10099999744852539        3.4345151399802769        33.510200229559999     
  0.10109999744599918        3.4378661110184474        33.509220229536474     
  0.10119999744347297        3.4412169840566151        33.508240229512950     
  0.10129999744094675        3.4445677590947801        33.507260229489425     
  0.10139999743842054        3.4479184361329422        33.506280229465901     
  0.10149999743589433        3.4512690151711016        33.505300229442376     
  0.10159999743336812        3.4546194962092578        33.504320229418852     
  0.10169999743084190        3.4579698792474112        33.503340229395327     
  0.10179999742831569        3.4613201642855618        33.502360229371803     
  0.10189999742578948        3.4646703513237096        33.501380229348278     
  0.10199999742326327        3.4680204403618546        33.500400229324754     
  0.10209999742073705        3.4713704313999969        33.499420229301229     
  0.10219999741821084        3.4747203244381364        33.498440229277705     
  0.10229999741568463        3.4780701194762731        33.497460229254180     
  0.10239999741315842        3.4814198165144070        33.496480229230656     
  0.10249999741063220        3.4847694155525382        33.495500229207131     
  0.10259999740810599        3.4881189165906665        33.494520229183607     
  0.10269999740557978        3.4914683196287921        33.493540229160082     
  0.10279999740305357        3.4948176246669149        33.492560229136558     
  0.10289999740052735        3.4981668317050350        33.491580229113033     
  0.10299999739800114        3.5015159407431522        33.490600229089509     
  0.10309999739547493        3.5048649517812667        33.489620229065984     
  0.10319999739294872        3.5082138648193784        33.488640229042460     
  0.10329999739042250        3.5115626798574873        33.487660229018935     
  0.10339999738789629        3.5149113968955934        33.486680228995411     
  0.10349999738537008        3.5182600159336967        33.485700228971886     
  0.10359999738284387        3.5216085369717973        33.484720228948362     
  0.10369999738031765        3.5249569600098951        33.483740228924837     
  0.10379999737779144        3.5283052850479901        33.482760228901313     
  0.10389999737526523        3.5316535120860824        33.481780228877788     
  0.10399999737273902        3.5350016411241714        33.480800228854264     
  0.10409999737021280        3.5383496721622576        33.479820228830739     
  0.10419999736768659        3.5416976052003410        33.478840228807215     
  0.10429999736516038        3.5450454402384217        33.477860228783690     
  0.10439999736263417        3.5483931772764996        33.476880228760166     
  0.10449999736010795        3.5517408163145747        33.475900228736641     
  0.10459999735758174        3.5550883573526471        33.474920228713117     
  0.10469999735505553        3.5584358003907166        33.473940228689592     
  0.10479999735252932        3.5617831454287834        33.472960228666068     
  0.10489999735000310        3.5651303924668474        33.471980228642543     
  0.10499999734747689        3.5684775415049086        33.471000228619019     
  0.10509999734495068        3.5718245925429670        33.470020228595494     
  0.10519999734242447        3.5751715455810227        33.469040228571970     
  0.10529999733989825        3.5785184006190756        33.468060228548445     
  0.10539999733737204        3.5818651576571257        33.467080228524921     
  0.10549999733484583        3.5852118166951730        33.466100228501396     
  0.10559999733231962        3.5885583777332175        33.465120228477872     
  0.10569999732979340        3.5919048407712593        33.464140228454347     
  0.10579999732726719        3.5952512058092982        33.463160228430823     
  0.10589999732474098        3.5985974728473344        33.462180228407298     
  0.10599999732221477        3.6019436418853679        33.461200228383774     
  0.10609999731968855        3.6052897129233985        33.460220228360249     
  0.10619999731716234        3.6086356859614264        33.459240228336725     
  0.10629999731463613        3.6119815609994514        33.458260228313200     
  0.10639999731210992        3.6153273380374737        33.457280228289676     
  0.10649999730958370        3.6186730170754928        33.456300228266151     
  0.10659999730705749        3.6220185981135091        33.455320228242627     
  0.10669999730453128        3.6253640811515226        33.454340228219102     
  0.10679999730200507        3.6287094661895334        33.453360228195578     
  0.10689999729947885        3.6320547532275413        33.452380228172053     
  0.10699999729695264        3.6353999422655465        33.451400228148529     
  0.10709999729442643        3.6387450333035489        33.450420228125004     
  0.10719999729190022        3.6420900263415485        33.449440228101480     
  0.10729999728937401        3.6454349213795454        33.448460228077955     
  0.10739999728684779        3.6487797184175395        33.447480228054431     
  0.10749999728432158        3.6521244174555307        33.446500228030906     
  0.10759999728179537        3.6554690184935192        33.445520228007382     
  0.10769999727926916        3.6588135215315050        33.444540227983858     
  0.10779999727674294        3.6621579265694879        33.443560227960333     
  0.10789999727421673        3.6655022336074681        33.442580227936809     
  0.10799999727169052        3.6688464426454455        33.441600227913284     
  0.10809999726916431        3.6721905536834201        33.440620227889760     
  0.10819999726663809        3.6755345667213919        33.439640227866235     
  0.10829999726411188        3.6788784817593609        33.438660227842711     
  0.10839999726158567        3.6822222987973272        33.437680227819186     
  0.10849999725905946        3.6855660178352907        33.436700227795662     
  0.10859999725653324        3.6889096388732514        33.435720227772137     
  0.10869999725400703        3.6922531619112093        33.434740227748613     
  0.10879999725148082        3.6955965869491645        33.433760227725088     
  0.10889999724895461        3.6989399139871169        33.432780227701564     
  0.10899999724642839        3.7022831430250660        33.431800227678039     
  0.10909999724390218        3.7056262740630124        33.430820227654515     
  0.10919999724137597        3.7089693071009560        33.429840227630990     
  0.10929999723884976        3.7123122421388968        33.428860227607466     
  0.10939999723632354        3.7156550791768348        33.427880227583941     
  0.10949999723379733        3.7189978182147700        33.426900227560417     
  0.10959999723127112        3.7223404592527025        33.425920227536892     
  0.10969999722874491        3.7256830022906322        33.424940227513368     
  0.10979999722621869        3.7290254473285591        33.423960227489843     
  0.10989999722369248        3.7323677943664832        33.422980227466319     
  0.10999999722116627        3.7357100434044046        33.422000227442794     
  0.11009999721864006        3.7390521944423232        33.421020227419270     
  0.11019999721611384        3.7423942474802390        33.420040227395745     
  0.11029999721358763        3.7457362025181520        33.419060227372221     
  0.11039999721106142        3.7490780595560622        33.418080227348696     
  0.11049999720853521        3.7524198185939697        33.417100227325172     
  0.11059999720600899        3.7557614796318743        33.416120227301647     
  0.11069999720348278        3.7591030426697762        33.415140227278123     
  0.11079999720095657        3.7624445077076754        33.414160227254598     
  0.11089999719843036        3.7657858747455717        33.413180227231074     
  0.11099999719590414        3.7691271437834653        33.412200227207549     
  0.11109999719337793        3.7724683148213560        33.411220227184025     
  0.11119999719085172        3.7758093878592440        33.410240227160500     
  0.11129999718832551        3.7791503628971292        33.409260227136976     
  0.11139999718579929        3.7824912399350117        33.408280227113451     
  0.11149999718327308        3.7858320189728909        33.407300227089927     
  0.11159999718074687        3.7891727000107673        33.406320227066402     
  0.11169999717822066        3.7925132830486410        33.405340227042878     
  0.11179999717569444        3.7958537680865119        33.404360227019353     
  0.11189999717316823        3.7991941551243800        33.403380226995829     
  0.11199999717064202        3.8025344441622453        33.402400226972304     
  0.11209999716811581        3.8058746352001078        33.401420226948780     
  0.11219999716558959        3.8092147282379676        33.400440226925255     
  0.11229999716306338        3.8125547232758246        33.399460226901731     
  0.11239999716053717        3.8158946203136788        33.398480226878206     
  0.11249999715801096        3.8192344193515302        33.397500226854682     
  0.11259999715548474        3.8225741203893788        33.396520226831157     
  0.11269999715295853        3.8259137234272247        33.395540226807633     
  0.11279999715043232        3.8292532284650678        33.394560226784108     
  0.11289999714790611        3.8325926355029081        33.393580226760584     
  0.11299999714537989        3.8359319445407456        33.392600226737059     
  0.11309999714285368        3.8392711555785803        33.391620226713535     
  0.11319999714032747        3.8426102686164123        33.390640226690010     
  0.11329999713780126        3.8459492836542415        33.389660226666486     
  0.11339999713527504        3.8492882006920679        33.388680226642961     
  0.11349999713274883        3.8526270197298915        33.387700226619437     
  0.11359999713022262        3.8559657407677124        33.386720226595912     
  0.11369999712769641        3.8593043638055304        33.385740226572388     
  0.11379999712517019        3.8626428888433457        33.384760226548863     
  0.11389999712264398        3.8659813158811582        33.383780226525339     
  0.11399999712011777        3.8693196449189675        33.382800226501814     
  0.11409999711759156        3.8726578759567740        33.381820226478290     
  0.11419999711506534        3.8759960089945777        33.380840226454765     
  0.11429999711253913        3.8793340440323787        33.379860226431241     
  0.11439999711001292        3.8826719810701769        33.378880226407716     
  0.11449999710748671        3.8860098201079722        33.377900226384192     
  0.11459999710496049        3.8893475611457649        33.376920226360667     
  0.11469999710243428        3.8926852041835547        33.375940226337143     
  0.11479999709990807        3.8960227492213417        33.374960226313618     
  0.11489999709738186        3.8993601962591260        33.373980226290094     
  0.11499999709485564        3.9026975452969075        33.373000226266569     
  0.11509999709232943        3.9060347963346862        33.372020226243045     
  0.11519999708980322        3.9093719493724621        33.371040226219520     
  0.11529999708727701        3.9127090044102353        33.370060226195996     
  0.11539999708475079        3.9160459614480057        33.369080226172471     
  0.11549999708222458        3.9193828204857732        33.368100226148947     
  0.11559999707969837        3.9227195815235381        33.367120226125422     
  0.11569999707717216        3.9260562445613001        33.366140226101898     
  0.11579999707464594        3.9293928095990593        33.365160226078373     
  0.11589999707211973        3.9327292766368158        33.364180226054849     
  0.11599999706959352        3.9360656456745695        33.363200226031324     
  0.11609999706706731        3.9394019167123204        33.362220226007800     
  0.11619999706454109        3.9427380897500686        33.361240225984275     
  0.11629999706201488        3.9460741647878139        33.360260225960751     
  0.11639999705948867        3.9494101418255561        33.359280225937226     
  0.11649999705696246        3.9527460208632954        33.358300225913702     
  0.11659999705443624        3.9560818019010320        33.357320225890177     
  0.11669999705191003        3.9594174849387658        33.356340225866653     
  0.11679999704938382        3.9627530699764968        33.355360225843128     
  0.11689999704685761        3.9660885570142250        33.354380225819604     
  0.11699999704433139        3.9694239460519505        33.353400225796079     
  0.11709999704180518        3.9727592370896732        33.352420225772555     
  0.11719999703927897        3.9760944301273931        33.351440225749030     
  0.11729999703675276        3.9794295251651102        33.350460225725506     
  0.11739999703422654        3.9827645222028245        33.349480225701981     
  0.11749999703170033        3.9860994212405361        33.348500225678457     
  0.11759999702917412        3.9894342222782448        33.347520225654932     
  0.11769999702664791        3.9927689253159508        33.346540225631408     
  0.11779999702412169        3.9961035303536541        33.345560225607883     
  0.11789999702159548        3.9994380373913545        33.344580225584359     
  0.11799999701906927        4.0027724464290522        33.343600225560834     
  0.11809999701654306        4.0061067574667470        33.342620225537310     
  0.11819999701401684        4.0094409705044392        33.341640225513785     
  0.11829999701149063        4.0127750855421285        33.340660225490261     
  0.11839999700896442        4.0161091025798150        33.339680225466736     
  0.11849999700643821        4.0194430216174988        33.338700225443212     
  0.11859999700391199        4.0227768426551798        33.337720225419687     
  0.11869999700138578        4.0261105656928580        33.336740225396163     
  0.11879999699885957        4.0294441907305334        33.335760225372638     
  0.11889999699633336        4.0327777177682060        33.334780225349114     
  0.11899999699380714        4.0361111468058759        33.333800225325589     
  0.11909999699128093        4.0394444778435430        33.332820225302065     
  0.11919999698875472        4.0427777108812073        33.331840225278540     
  0.11929999698622851        4.0461108459188688        33.330860225255016     
  0.11939999698370229        4.0494438829565276        33.329880225231491     
  0.11949999698117608        4.0527768219941835        33.328900225207967     
  0.11959999697864987        4.0561096630318367        33.327920225184442     
  0.11969999697612366        4.0594424060694871        33.326940225160918     
  0.11979999697359744        4.0627750511071348        33.325960225137393     
  0.11989999697107123        4.0661075981447796        33.324980225113869     
  0.11999999696854502        4.0694400471824217        33.324000225090344     
  0.12009999696601881        4.0727723982200610        33.323020225066820     
  0.12019999696349259        4.0761046512576966        33.322040225043295     
  0.12029999696096638        4.0794368062953295        33.321060225019771     
  0.12039999695844017        4.0827688633329595        33.320080224996246     
  0.12049999695591396        4.0861008223705868        33.319100224972722     
  0.12059999695338774        4.0894326834082113        33.318120224949197     
  0.12069999695086153        4.0927644464458330        33.317140224925673     
  0.12079999694833532        4.0960961114834520        33.316160224902148     
  0.12089999694580911        4.0994276785210682        33.315180224878624     
  0.12099999694328289        4.1027591475586815        33.314200224855099     
  0.12109999694075668        4.1060905185962921        33.313220224831575     
  0.12119999693823047        4.1094217916339000        33.312240224808050     
  0.12129999693570426        4.1127529666715050        33.311260224784526     
  0.12139999693317804        4.1160840437091073        33.310280224761001     
  0.12149999693065183        4.1194150227467068        33.309300224737477     
  0.12159999692812562        4.1227459037843035        33.308320224713952     
  0.12169999692559941        4.1260766868218974        33.307340224690428     
  0.12179999692307319        4.1294073718594886        33.306360224666903     
  0.12189999692054698        4.1327379588970770        33.305380224643379     
  0.12199999691802077        4.1360684479346626        33.304400224619854     
  0.12209999691549456        4.1393988389722454        33.303420224596330     
  0.12219999691296834        4.1427291320098254        33.302440224572806     
  0.12229999691044213        4.1460593270474027        33.301460224549281     
  0.12239999690791592        4.1493894240849771        33.300480224525757     
  0.12249999690538971        4.1527194231225488        33.299500224502232     
  0.12259999690286350        4.1560493241601177        33.298520224478708     
  0.12269999690033728        4.1593791271976839        33.297540224455183     
  0.12279999689781107        4.1627088322352472        33.296560224431659     
  0.12289999689528486        4.1660384392728078        33.295580224408134     
  0.12299999689275865        4.1693679483103656        33.294600224384610     
  0.12309999689023243        4.1726973593479206        33.293620224361085     
  0.12319999688770622        4.1760266723854729        33.292640224337561     
  0.12329999688518001        4.1793558874230223        33.291660224314036     
  0.12339999688265380        4.1826850044605690        33.290680224290512     
  0.12349999688012758        4.1860140234981129        33.289700224266987     
  0.12359999687760137        4.1893429445356540        33.288720224243463     
  0.12369999687507516        4.1926717675731924        33.287740224219938     
  0.12379999687254895        4.1960004926107279        33.286760224196414     
  0.12389999687002273        4.1993291196482607        33.285780224172889     
  0.12399999686749652        4.2026576486857907        33.284800224149365     
  0.12409999686497031        4.2059860797233179        33.283820224125840     
  0.12419999686244410        4.2093144127608424        33.282840224102316     
  0.12429999685991788        4.2126426477983641        33.281860224078791     
  0.12439999685739167        4.2159707848358829        33.280880224055267     
  0.12449999685486546        4.2192988238733991        33.279900224031742     
  0.12459999685233925        4.2226267649109124        33.278920224008218     
  0.12469999684981303        4.2259546079484229        33.277940223984693     
  0.12479999684728682        4.2292823529859307        33.276960223961169     
  0.12489999684476061        4.2326100000234357        33.275980223937644     
  0.12499999684223440        4.2359375490609379        33.275000223914120     
  0.12509999683970818        4.2392650000984364        33.274020223890595     
  0.12519999683718197        4.2425923531359322        33.273040223867071     
  0.12529999683465576        4.2459196081734252        33.272060223843546     
  0.12539999683212955        4.2492467652109154        33.271080223820022     
  0.12549999682960333        4.2525738242484028        33.270100223796497     
  0.12559999682707712        4.2559007852858874        33.269120223772973     
  0.12569999682455091        4.2592276483233693        33.268140223749448     
  0.12579999682202470        4.2625544133608484        33.267160223725924     
  0.12589999681949848        4.2658810803983247        33.266180223702399     
  0.12599999681697227        4.2692076494357982        33.265200223678875     
  0.12609999681444606        4.2725341204732690        33.264220223655350     
  0.12619999681191985        4.2758604935107369        33.263240223631826     
  0.12629999680939363        4.2791867685482021        33.262260223608301     
  0.12639999680686742        4.2825129455856645        33.261280223584777     
  0.12649999680434121        4.2858390246231242        33.260300223561252     
  0.12659999680181500        4.2891650056605810        33.259320223537728     
  0.12669999679928878        4.2924908886980351        33.258340223514203     
  0.12679999679676257        4.2958166737354864        33.257360223490679     
  0.12689999679423636        4.2991423607729349        33.256380223467154     
  0.12699999679171015        4.3024679498103806        33.255400223443630     
  0.12709999678918393        4.3057934408478236        33.254420223420105     
  0.12719999678665772        4.3091188338852637        33.253440223396581     
  0.12729999678413151        4.3124441289227011        33.252460223373056     
  0.12739999678160530        4.3157693259601357        33.251480223349532     
  0.12749999677907908        4.3190944249975676        33.250500223326007     
  0.12759999677655287        4.3224194260349966        33.249520223302483     
  0.12769999677402666        4.3257443290724229        33.248540223278958     
  0.12779999677150045        4.3290691341098464        33.247560223255434     
  0.12789999676897423        4.3323938411472671        33.246580223231909     
  0.12799999676644802        4.3357184501846850        33.245600223208385     
  0.12809999676392181        4.3390429612221002        33.244620223184860     
  0.12819999676139560        4.3423673742595126        33.243640223161336     
  0.12829999675886938        4.3456916892969222        33.242660223137811     
  0.12839999675634317        4.3490159063343290        33.241680223114287     
  0.12849999675381696        4.3523400253717330        33.240700223090762     
  0.12859999675129075        4.3556640464091343        33.239720223067238     
  0.12869999674876453        4.3589879694465328        33.238740223043713     
  0.12879999674623832        4.3623117944839285        33.237760223020189     
  0.12889999674371211        4.3656355215213214        33.236780222996664     
  0.12899999674118590        4.3689591505587115        33.235800222973140     
  0.12909999673865968        4.3722826815960989        33.234820222949615     
  0.12919999673613347        4.3756061146334835        33.233840222926091     
  0.12929999673360726        4.3789294496708653        33.232860222902566     
  0.12939999673108105        4.3822526867082443        33.231880222879042     
  0.12949999672855483        4.3855758257456205        33.230900222855517     
  0.12959999672602862        4.3888988667829940        33.229920222831993     
  0.12969999672350241        4.3922218098203647        33.228940222808468     
  0.12979999672097620        4.3955446548577326        33.227960222784944     
  0.12989999671844998        4.3988674018950977        33.226980222761419     
  0.12999999671592377        4.4021900509324601        33.226000222737895     
  0.13009999671339756        4.4055126019698188        33.225020222714370     
  0.13019999671087135        4.4088350550071747        33.224040222690846     
  0.13029999670834513        4.4121574100445278        33.223060222667321     
  0.13039999670581892        4.4154796670818781        33.222080222643797     
  0.13049999670329271        4.4188018261192257        33.221100222620272     
  0.13059999670076650        4.4221238871565705        33.220120222596748     
  0.13069999669824028        4.4254458501939125        33.219140222573223     
  0.13079999669571407        4.4287677152312517        33.218160222549699     
  0.13089999669318786        4.4320894822685881        33.217180222526174     
  0.13099999669066165        4.4354111513059218        33.216200222502650     
  0.13109999668813543        4.4387327223432527        33.215220222479125     
  0.13119999668560922        4.4420541953805808        33.214240222455601     
  0.13129999668308301        4.4453755704179061        33.213260222432076     
  0.13139999668055680        4.4486968474552286        33.212280222408552     
  0.13149999667803058        4.4520180264925484        33.211300222385027     
  0.13159999667550437        4.4553391075298654        33.210320222361503     
  0.13169999667297816        4.4586600905671796        33.209340222337978     
  0.13179999667045195        4.4619809756044910        33.208360222314454     
  0.13189999666792573        4.4653017626417997        33.207380222290929     
  0.13199999666539952        4.4686224516791055        33.206400222267405     
  0.13209999666287331        4.4719430427164086        33.205420222243880     
  0.13219999666034710        4.4752635357537089        33.204440222220356     
  0.13229999665782088        4.4785839307910065        33.203460222196831     
  0.13239999665529467        4.4819042278283012        33.202480222173307     
  0.13249999665276846        4.4852244268655932        33.201500222149782     
  0.13259999665024225        4.4885445279028824        33.200520222126258     
  0.13269999664771603        4.4918645309401688        33.199540222102733     
  0.13279999664518982        4.4951844359774524        33.198560222079209     
  0.13289999664266361        4.4985042430147333        33.197580222055684     
  0.13299999664013740        4.5018239520520114        33.196600222032160     
  0.13309999663761118        4.5051435630892867        33.195620222008635     
  0.13319999663508497        4.5084630761265592        33.194640221985111     
  0.13329999663255876        4.5117824911638289        33.193660221961586     
  0.13339999663003255        4.5151018082010959        33.192680221938062     
  0.13349999662750633        4.5184210272383600        33.191700221914537     
  0.13359999662498012        4.5217401482756214        33.190720221891013     
  0.13369999662245391        4.5250591713128800        33.189740221867488     
  0.13379999661992770        4.5283780963501359        33.188760221843964     
  0.13389999661740148        4.5316969233873889        33.187780221820439     
  0.13399999661487527        4.5350156524246392        33.186800221796915     
  0.13409999661234906        4.5383342834618867        33.185820221773390     
  0.13419999660982285        4.5416528164991314        33.184840221749866     
  0.13429999660729663        4.5449712515363734        33.183860221726341     
  0.13439999660477042        4.5482895885736125        33.182880221702817     
  0.13449999660224421        4.5516078276108489        33.181900221679292     
  0.13459999659971800        4.5549259686480825        33.180920221655768     
  0.13469999659719178        4.5582440116853133        33.179940221632243     
  0.13479999659466557        4.5615619567225414        33.178960221608719     
  0.13489999659213936        4.5648798037597667        33.177980221585194     
  0.13499999658961315        4.5681975527969882        33.177000221561670     
  0.13509999658708693        4.5715152038342071        33.176020221538145     
  0.13519999658456072        4.5748327568714231        33.175040221514621     
  0.13529999658203451        4.5781502119086364        33.174060221491096     
  0.13539999657950830        4.5814675689458468        33.173080221467572     
  0.13549999657698208        4.5847848279830545        33.172100221444047     
  0.13559999657445587        4.5881019890202595        33.171120221420523     
  0.13569999657192966        4.5914190520574616        33.170140221396998     
  0.13579999656940345        4.5947360170946610        33.169160221373474     
  0.13589999656687723        4.5980528841318575        33.168180221349949     
  0.13599999656435102        4.6013696531690513        33.167200221326425     
  0.13609999656182481        4.6046863242062424        33.166220221302900     
  0.13619999655929860        4.6080028972434306        33.165240221279376     
  0.13629999655677238        4.6113193722806161        33.164260221255851     
  0.13639999655424617        4.6146357493177987        33.163280221232327     
  0.13649999655171996        4.6179520283549786        33.162300221208802     
  0.13659999654919375        4.6212682093921558        33.161320221185278     
  0.13669999654666753        4.6245842924293301        33.160340221161754     
  0.13679999654414132        4.6279002774665017        33.159360221138229     
  0.13689999654161511        4.6312161645036705        33.158380221114705     
  0.13699999653908890        4.6345319535408365        33.157400221091180     
  0.13709999653656268        4.6378476445779997        33.156420221067656     
  0.13719999653403647        4.6411632376151601        33.155440221044131     
  0.13729999653151026        4.6444787326523178        33.154460221020607     
  0.13739999652898405        4.6477941296894727        33.153480220997082     
  0.13749999652645783        4.6511094287266248        33.152500220973558     
  0.13759999652393162        4.6544246297637741        33.151520220950033     
  0.13769999652140541        4.6577397328009207        33.150540220926509     
  0.13779999651887920        4.6610547378380645        33.149560220902984     
  0.13789999651635299        4.6643696448752054        33.148580220879460     
  0.13799999651382677        4.6676844539123437        33.147600220855935     
  0.13809999651130056        4.6709991649494791        33.146620220832411     
  0.13819999650877435        4.6743137779866117        33.145640220808886     
  0.13829999650624814        4.6776282930237416        33.144660220785362     
  0.13839999650372192        4.6809427100608687        33.143680220761837     
  0.13849999650119571        4.6842570290979930        33.142700220738313     
  0.13859999649866950        4.6875712501351146        33.141720220714788     
  0.13869999649614329        4.6908853731722333        33.140740220691264     
  0.13879999649361707        4.6941993982093493        33.139760220667739     
  0.13889999649109086        4.6975133252464625        33.138780220644215     
  0.13899999648856465        4.7008271542835729        33.137800220620690     
  0.13909999648603844        4.7041408853206805        33.136820220597166     
  0.13919999648351222        4.7074545183577854        33.135840220573641     
  0.13929999648098601        4.7107680533948875        33.134860220550117     
  0.13939999647845980        4.7140814904319868        33.133880220526592     
  0.13949999647593359        4.7173948294690833        33.132900220503068     
  0.13959999647340737        4.7207080705061770        33.131920220479543     
  0.13969999647088116        4.7240212135432680        33.130940220456019     
  0.13979999646835495        4.7273342585803562        33.129960220432494     
  0.13989999646582874        4.7306472056174416        33.128980220408970     
  0.13999999646330252        4.7339600546545233        33.128000220385445     
  0.14009999646077631        4.7372728056916023        33.127020220361921     
  0.14019999645825010        4.7405854587286784        33.126040220338396     
  0.14029999645572389        4.7438980137657518        33.125060220314872     
  0.14039999645319767        4.7472104708028224        33.124080220291347     
  0.14049999645067146        4.7505228298398903        33.123100220267823     
  0.14059999644814525        4.7538350908769553        33.122120220244298     
  0.14069999644561904        4.7571472539140176        33.121140220220774     
  0.14079999644309282        4.7604593189510771        33.120160220197249     
  0.14089999644056661        4.7637712859881338        33.119180220173725     
  0.14099999643804040        4.7670831550251878        33.118200220150200     
  0.14109999643551419        4.7703949260622389        33.117220220126676     
  0.14119999643298797        4.7737065990992873        33.116240220103151     
  0.14129999643046176        4.7770181741363329        33.115260220079627     
  0.14139999642793555        4.7803296511733757        33.114280220056102     
  0.14149999642540934        4.7836410302104158        33.113300220032578     
  0.14159999642288312        4.7869523112474530        33.112320220009053     
  0.14169999642035691        4.7902634942844875        33.111340219985529     
  0.14179999641783070        4.7935745793215192        33.110360219962004     
  0.14189999641530449        4.7968855663585481        33.109380219938480     
  0.14199999641277827        4.8001964553955743        33.108400219914955     
  0.14209999641025206        4.8035072464325976        33.107420219891431     
  0.14219999640772585        4.8068179394696182        33.106440219867906     
  0.14229999640519964        4.8101285345066360        33.105460219844382     
  0.14239999640267342        4.8134390315436510        33.104480219820857     
  0.14249999640014721        4.8167494305806633        33.103500219797333     
  0.14259999639762100        4.8200597316176728        33.102520219773808     
  0.14269999639509479        4.8233699346546794        33.101540219750284     
  0.14279999639256857        4.8266800396916834        33.100560219726759     
  0.14289999639004236        4.8299900467286845        33.099580219703235     
  0.14299999638751615        4.8332999557656828        33.098600219679710     
  0.14309999638498994        4.8366097668026784        33.097620219656186     
  0.14319999638246372        4.8399194798396712        33.096640219632661     
  0.14329999637993751        4.8432290948766612        33.095660219609137     
  0.14339999637741130        4.8465386119136484        33.094680219585612     
  0.14349999637488509        4.8498480309506329        33.093700219562088     
  0.14359999637235887        4.8531573519876146        33.092720219538563     
  0.14369999636983266        4.8564665750245934        33.091740219515039     
  0.14379999636730645        4.8597757000615696        33.090760219491514     
  0.14389999636478024        4.8630847270985429        33.089780219467990     
  0.14399999636225402        4.8663936561355134        33.088800219444465     
  0.14409999635972781        4.8697024871724812        33.087820219420941     
  0.14419999635720160        4.8730112202094462        33.086840219397416     
  0.14429999635467539        4.8763198552464084        33.085860219373892     
  0.14439999635214917        4.8796283922833679        33.084880219350367     
  0.14449999634962296        4.8829368313203245        33.083900219326843     
  0.14459999634709675        4.8862451723572784        33.082920219303318     
  0.14469999634457054        4.8895534153942295        33.081940219279794     
  0.14479999634204432        4.8928615604311778        33.080960219256269     
  0.14489999633951811        4.8961696074681234        33.079980219232745     
  0.14499999633699190        4.8994775565050652        33.079000219209220     
  0.14509999633446569        4.9027854075420043        33.078020219185696     
  0.14519999633193947        4.9060931605789406        33.077040219162171     
  0.14529999632941326        4.9094008156158742        33.076060219138647     
  0.14539999632688705        4.9127083726528049        33.075080219115122     
  0.14549999632436084        4.9160158316897329        33.074100219091598     
  0.14559999632183462        4.9193231927266581        33.073120219068073     
  0.14569999631930841        4.9226304557635805        33.072140219044549     
  0.14579999631678220        4.9259376208005001        33.071160219021024     
  0.14589999631425599        4.9292446878374170        33.070180218997500     
  0.14599999631172977        4.9325516568743311        33.069200218973975     
  0.14609999630920356        4.9358585279112424        33.068220218950451     
  0.14619999630667735        4.9391653009481509        33.067240218926926     
  0.14629999630415114        4.9424719759850566        33.066260218903402     
  0.14639999630162492        4.9457785530219596        33.065280218879877     
  0.14649999629909871        4.9490850320588597        33.064300218856353     
  0.14659999629657250        4.9523914130957571        33.063320218832828     
  0.14669999629404629        4.9556976961326518        33.062340218809304     
  0.14679999629152007        4.9590038811695436        33.061360218785779     
  0.14689999628899386        4.9623099682064327        33.060380218762255     
  0.14699999628646765        4.9656159572433189        33.059400218738730     
  0.14709999628394144        4.9689218482802024        33.058420218715206     
  0.14719999628141522        4.9722276413170832        33.057440218691681     
  0.14729999627888901        4.9755333363539611        33.056460218668157     
  0.14739999627636280        4.9788389333908363        33.055480218644632     
  0.14749999627383659        4.9821444324277087        33.054500218621108     
  0.14759999627131037        4.9854498334645783        33.053520218597583     
  0.14769999626878416        4.9887551365014451        33.052540218574059     
  0.14779999626625795        4.9920603415383091        33.051560218550534     
  0.14789999626373174        4.9953654485751704        33.050580218527010     
  0.14799999626120552        4.9986704576120289        33.049600218503485     
  0.14809999625867931        5.0019753686488846        33.048620218479961     
  0.14819999625615310        5.0052801816857375        33.047640218456436     
  0.14829999625362689        5.0085848967225877        33.046660218432912     
  0.14839999625110067        5.0118895137594350        33.045680218409387     
  0.14849999624857446        5.0151940327962796        33.044700218385863     
  0.14859999624604825        5.0184984538331214        33.043720218362338     
  0.14869999624352204        5.0218027768699605        33.042740218338814     
  0.14879999624099582        5.0251070019067967        33.041760218315289     
  0.14889999623846961        5.0284111289436302        33.040780218291765     
  0.14899999623594340        5.0317151579804609        33.039800218268240     
  0.14909999623341719        5.0350190890172888        33.038820218244716     
  0.14919999623089097        5.0383229220541139        33.037840218221191     
  0.14929999622836476        5.0416266570909363        33.036860218197667     
  0.14939999622583855        5.0449302941277558        33.035880218174142     
  0.14949999622331234        5.0482338331645726        33.034900218150618     
  0.14959999622078612        5.0515372742013867        33.033920218127093     
  0.14969999621825991        5.0548406172381979        33.032940218103569     
  0.14979999621573370        5.0581438622750063        33.031960218080044     
  0.14989999621320749        5.0614470093118111        33.030980218056520     
  0.14999999621068127        5.0647500583486131        33.030000218032995     
  0.15009999620815506        5.0680530093854124        33.029020218009471     
  0.15019999620562885        5.0713558624222088        33.028040217985946     
  0.15029999620310264        5.0746586174590025        33.027060217962422     
  0.15039999620057642        5.0779612744957934        33.026080217938897     
  0.15049999619805021        5.0812638335325815        33.025100217915373     
  0.15059999619552400        5.0845662945693668        33.024120217891848     
  0.15069999619299779        5.0878686576061494        33.023140217868324     
  0.15079999619047157        5.0911709226429291        33.022160217844799     
  0.15089999618794536        5.0944730896797061        33.021180217821275     
  0.15099999618541915        5.0977751587164803        33.020200217797750     
  0.15109999618289294        5.1010771297532518        33.019220217774226     
  0.15119999618036672        5.1043790027900204        33.018240217750702     
  0.15129999617784051        5.1076807778267863        33.017260217727177     
  0.15139999617531430        5.1109824548635494        33.016280217703653     
  0.15149999617278809        5.1142840339003097        33.015300217680128     
  0.15159999617026187        5.1175855149370673        33.014320217656604     
  0.15169999616773566        5.1208868979738220        33.013340217633079     
